                   u          alpha(angstrong)       alpha(a.u.)  

                   0.0000     2.230732E+00           1.505372E+01
                   0.1000     2.215469E+00           1.495072E+01
                   0.2000     2.171427E+00           1.465351E+01
                   0.3000     2.103291E+00           1.419371E+01
                   0.4000     2.017359E+00           1.361381E+01
                   0.5000     1.920112E+00           1.295756E+01
                   0.6000     1.817220E+00           1.226321E+01
                   0.7000     1.713097E+00           1.156055E+01
                   0.8000     1.610871E+00           1.087070E+01
                   0.9000     1.512576E+00           1.020737E+01
                   1.0000     1.419405E+00           9.578622E+00
                   1.1000     1.331954E+00           8.988474E+00
                   1.2000     1.250414E+00           8.438211E+00
                   1.3000     1.174714E+00           7.927365E+00
                   1.4000     1.104629E+00           7.454406E+00
                   1.5000     1.039843E+00           7.017208E+00
                   1.6000     9.799988E-01           6.613360E+00
                   1.7000     9.247258E-01           6.240359E+00
                   1.8000     8.736582E-01           5.895738E+00
                   1.9000     8.264459E-01           5.577133E+00
                   2.0000     7.827600E-01           5.282327E+00
                   2.1000     7.422958E-01           5.009261E+00
                   2.2000     7.047733E-01           4.756046E+00
                   2.3000     6.699366E-01           4.520956E+00
                   2.4000     6.375532E-01           4.302422E+00
                   2.5000     6.074120E-01           4.099019E+00
                   2.6000     5.793217E-01           3.909456E+00
                   2.7000     5.531093E-01           3.732566E+00
                   2.8000     5.286183E-01           3.567293E+00
                   2.9000     5.057069E-01           3.412679E+00
                   3.0000     4.842469E-01           3.267860E+00
                   3.1000     4.641222E-01           3.132052E+00
                   3.2000     4.452274E-01           3.004543E+00
                   3.3000     4.274668E-01           2.884689E+00
                   3.4000     4.107538E-01           2.771904E+00
                   3.5000     3.950094E-01           2.665655E+00
                   3.6000     3.801615E-01           2.565457E+00
                   3.7000     3.661448E-01           2.470867E+00
                   3.8000     3.528993E-01           2.381482E+00
                   3.9000     3.403704E-01           2.296933E+00
                   4.0000     3.285080E-01           2.216882E+00
                   4.1000     3.172664E-01           2.141020E+00
                   4.2000     3.066035E-01           2.069063E+00
                   4.3000     2.964807E-01           2.000751E+00
                   4.4000     2.868625E-01           1.935844E+00
                   4.5000     2.777162E-01           1.874122E+00
                   4.6000     2.690116E-01           1.815381E+00
                   4.7000     2.607212E-01           1.759434E+00
                   4.8000     2.528190E-01           1.706107E+00
                   4.9000     2.452815E-01           1.655242E+00
                   5.0000     2.380866E-01           1.606688E+00
                   5.2500     2.214683E-01           1.494542E+00
                   5.5000     2.065879E-01           1.394124E+00
                   5.7500     1.932116E-01           1.303856E+00
                   6.0000     1.811433E-01           1.222416E+00
                   6.2500     1.702177E-01           1.148686E+00
                   6.5000     1.602946E-01           1.081721E+00
                   6.7500     1.512545E-01           1.020716E+00
                   7.0000     1.429951E-01           9.649786E-01
                   7.2500     1.354285E-01           9.139167E-01
                   7.5000     1.284787E-01           8.670174E-01
                   7.7500     1.220799E-01           8.238363E-01
                   8.0000     1.161748E-01           7.839863E-01
                   8.2500     1.107133E-01           7.471301E-01
                   8.5000     1.056514E-01           7.129710E-01
                   8.7500     1.009506E-01           6.812486E-01
                   9.0000     9.657689E-02           6.517332E-01
                   9.2500     9.250005E-02           6.242213E-01
                   9.5000     8.869338E-02           5.985326E-01
                   9.7500     8.513307E-02           5.745064E-01
                  10.0000     8.179791E-02           5.519997E-01
                  10.2500     7.866891E-02           5.308841E-01
                  10.5000     7.572905E-02           5.110450E-01
                  10.7500     7.296305E-02           4.923791E-01
                  11.0000     7.035712E-02           4.747934E-01
                  11.2500     6.789884E-02           4.582041E-01
                  11.5000     6.557697E-02           4.425353E-01
                  11.7500     6.338133E-02           4.277184E-01
                  12.0000     6.130266E-02           4.136909E-01
                  12.2500     5.933257E-02           4.003961E-01
                  12.5000     5.746339E-02           3.877822E-01
                  12.7500     5.568812E-02           3.758021E-01
                  13.0000     5.400038E-02           3.644126E-01
                  13.2500     5.239430E-02           3.535743E-01
                  13.5000     5.086453E-02           3.432509E-01
                  13.7500     4.940614E-02           3.334092E-01
                  14.0000     4.801460E-02           3.240186E-01
                  14.2500     4.668572E-02           3.150508E-01
                  14.5000     4.541566E-02           3.064801E-01
                  14.7500     4.420086E-02           2.982822E-01
                  15.0000     4.303805E-02           2.904351E-01
                  15.2500     4.192416E-02           2.829183E-01
                  15.5000     4.085640E-02           2.757126E-01
                  15.7500     3.983212E-02           2.688005E-01
                  16.0000     3.884892E-02           2.621655E-01
                  16.2500     3.790454E-02           2.557925E-01
                  16.5000     3.699685E-02           2.496671E-01
                  16.7500     3.612390E-02           2.437761E-01
                  17.0000     3.528386E-02           2.381073E-01
                  17.2500     3.447502E-02           2.326490E-01
                  17.5000     3.369579E-02           2.273905E-01
                  17.7500     3.294467E-02           2.223217E-01
                  18.0000     3.222027E-02           2.174331E-01
                  18.2500     3.152126E-02           2.127160E-01
                  18.5000     3.084643E-02           2.081620E-01
                  18.7500     3.019461E-02           2.037633E-01
                  19.0000     2.956472E-02           1.995126E-01
                  19.2500     2.895575E-02           1.954031E-01
                  19.5000     2.836672E-02           1.914281E-01
                  19.7500     2.779674E-02           1.875817E-01
                  20.0000     2.724496E-02           1.838581E-01
                  20.2500     2.671056E-02           1.802518E-01
                  20.5000     2.619279E-02           1.767577E-01
                  20.7500     2.569093E-02           1.733710E-01
                  21.0000     2.520431E-02           1.700871E-01
                  21.2500     2.473229E-02           1.669017E-01
                  21.5000     2.427424E-02           1.638107E-01
                  21.7500     2.382962E-02           1.608102E-01
                  22.0000     2.339785E-02           1.578966E-01
                  22.2500     2.297845E-02           1.550663E-01
                  22.5000     2.257090E-02           1.523160E-01
                  22.7500     2.217475E-02           1.496426E-01
                  23.0000     2.178955E-02           1.470432E-01
                  23.2500     2.141489E-02           1.445148E-01
                  23.5000     2.105036E-02           1.420549E-01
                  23.7500     2.069558E-02           1.396607E-01
                  24.0000     2.035020E-02           1.373300E-01
                  24.2500     2.001386E-02           1.350602E-01
                  24.5000     1.968624E-02           1.328494E-01
                  24.7500     1.936703E-02           1.306952E-01
                  25.0000     1.905592E-02           1.285958E-01
                  25.2500     1.875264E-02           1.265491E-01
                  25.5000     1.845690E-02           1.245533E-01
                  25.7500     1.816845E-02           1.226068E-01
                  26.0000     1.788704E-02           1.207077E-01
                  26.2500     1.761243E-02           1.188546E-01
                  26.5000     1.734440E-02           1.170458E-01
                  26.7500     1.708272E-02           1.152799E-01
                  27.0000     1.682718E-02           1.135555E-01
                  27.2500     1.657759E-02           1.118712E-01
                  27.5000     1.633377E-02           1.102257E-01
                  27.7500     1.609551E-02           1.086179E-01
                  28.0000     1.586265E-02           1.070465E-01
                  28.2500     1.563501E-02           1.055103E-01
                  28.5000     1.541245E-02           1.040083E-01
                  28.7500     1.519479E-02           1.025395E-01
                  29.0000     1.498189E-02           1.011028E-01
                  29.2500     1.477360E-02           9.969721E-02
                  29.5000     1.456980E-02           9.832187E-02
                  29.7500     1.437034E-02           9.697583E-02
                  30.0000     1.417509E-02           9.565827E-02
                  30.2500     1.398394E-02           9.436832E-02
                  30.5000     1.379677E-02           9.310523E-02
                  30.7500     1.361346E-02           9.186819E-02
                  31.0000     1.343390E-02           9.065647E-02
                  31.2500     1.325799E-02           8.946935E-02
                  31.5000     1.308562E-02           8.830617E-02
                  31.7500     1.291670E-02           8.716624E-02
                  32.0000     1.275114E-02           8.604893E-02
                  32.2500     1.258883E-02           8.495362E-02
                  32.5000     1.242969E-02           8.387971E-02
                  32.7500     1.227364E-02           8.282663E-02
                  33.0000     1.212060E-02           8.179384E-02
                  33.2500     1.197048E-02           8.078078E-02
                  33.5000     1.182321E-02           7.978694E-02
                  33.7500     1.167871E-02           7.881183E-02
                  34.0000     1.153691E-02           7.785493E-02
                  34.2500     1.139775E-02           7.691585E-02
                  34.5000     1.126116E-02           7.599407E-02
                  34.7500     1.112707E-02           7.508917E-02
                  35.0000     1.099541E-02           7.420074E-02
                  35.2500     1.086614E-02           7.332832E-02
                  35.5000     1.073919E-02           7.247161E-02
                  35.7500     1.061449E-02           7.163014E-02
                  36.0000     1.049201E-02           7.080356E-02
                  36.2500     1.037168E-02           6.999154E-02
                  36.5000     1.025345E-02           6.919370E-02
                  36.7500     1.013727E-02           6.840970E-02
                  37.0000     1.002310E-02           6.763923E-02
                  37.2500     9.910883E-03           6.688195E-02
                  37.5000     9.800577E-03           6.613757E-02
                  37.7500     9.692138E-03           6.540579E-02
                  38.0000     9.585521E-03           6.468630E-02
                  38.2500     9.480688E-03           6.397885E-02
                  38.5000     9.377595E-03           6.328315E-02
                  38.7500     9.276205E-03           6.259894E-02
                  39.0000     9.176477E-03           6.192594E-02
                  39.2500     9.078376E-03           6.126392E-02
                  39.5000     8.981865E-03           6.061263E-02
                  39.7500     8.886910E-03           5.997184E-02
                  40.0000     8.793475E-03           5.934131E-02
                  40.2500     8.701528E-03           5.872082E-02
                  40.5000     8.611040E-03           5.811018E-02
                  40.7500     8.521975E-03           5.750914E-02
                  41.0000     8.434303E-03           5.691750E-02
                  41.2500     8.347996E-03           5.633507E-02
                  41.5000     8.263026E-03           5.576166E-02
                  41.7500     8.179363E-03           5.519708E-02
                  42.0000     8.096981E-03           5.464113E-02
                  42.2500     8.015852E-03           5.409365E-02
                  42.5000     7.935951E-03           5.355445E-02
                  42.7500     7.857255E-03           5.302338E-02
                  43.0000     7.779736E-03           5.250026E-02
                  43.2500     7.703371E-03           5.198493E-02
                  43.5000     7.628140E-03           5.147724E-02
                  43.7500     7.554016E-03           5.097703E-02
                  44.0000     7.480978E-03           5.048414E-02
                  44.2500     7.409008E-03           4.999846E-02
                  44.5000     7.338080E-03           4.951982E-02
                  44.7500     7.268175E-03           4.904808E-02
                  45.0000     7.199275E-03           4.858311E-02
                  45.2500     7.131358E-03           4.812479E-02
                  45.5000     7.064407E-03           4.767298E-02
                  45.7500     6.998404E-03           4.722757E-02
                  46.0000     6.933329E-03           4.678842E-02
                  46.2500     6.869165E-03           4.635542E-02
                  46.5000     6.805894E-03           4.592845E-02
                  46.7500     6.743501E-03           4.550740E-02
                  47.0000     6.681968E-03           4.509216E-02
                  47.2500     6.621281E-03           4.468262E-02
                  47.5000     6.561423E-03           4.427868E-02
                  47.7500     6.502378E-03           4.388022E-02
                  48.0000     6.444133E-03           4.348717E-02
                  48.2500     6.386672E-03           4.309940E-02
                  48.5000     6.329981E-03           4.271683E-02
                  48.7500     6.274046E-03           4.233936E-02
                  49.0000     6.218855E-03           4.196692E-02
                  49.2500     6.164393E-03           4.159939E-02
                  49.5000     6.110648E-03           4.123669E-02
                  49.7500     6.057606E-03           4.087875E-02
                  50.0000     6.005256E-03           4.052548E-02
