#        Energy grid [eV]               EELS_x                   EELS_y                   EELS_z
#
                 0.000000                      NaN                      NaN                      NaN
                 0.010010                 0.000022                 0.000022                 0.000022
                 0.020020                 0.000043                 0.000043                 0.000043
                 0.030031                 0.000065                 0.000065                 0.000065
                 0.040041                 0.000087                 0.000087                 0.000087
                 0.050051                 0.000109                 0.000109                 0.000109
                 0.060061                 0.000130                 0.000131                 0.000130
                 0.070071                 0.000152                 0.000152                 0.000152
                 0.080082                 0.000174                 0.000174                 0.000174
                 0.090092                 0.000196                 0.000196                 0.000196
                 0.100102                 0.000218                 0.000218                 0.000218
                 0.110112                 0.000239                 0.000240                 0.000239
                 0.120122                 0.000261                 0.000261                 0.000261
                 0.130133                 0.000283                 0.000283                 0.000283
                 0.140143                 0.000305                 0.000305                 0.000305
                 0.150153                 0.000327                 0.000327                 0.000327
                 0.160163                 0.000349                 0.000349                 0.000349
                 0.170173                 0.000371                 0.000371                 0.000371
                 0.180183                 0.000393                 0.000393                 0.000393
                 0.190194                 0.000415                 0.000415                 0.000415
                 0.200204                 0.000437                 0.000437                 0.000437
                 0.210214                 0.000459                 0.000459                 0.000459
                 0.220224                 0.000481                 0.000481                 0.000481
                 0.230234                 0.000503                 0.000503                 0.000503
                 0.240245                 0.000525                 0.000526                 0.000525
                 0.250255                 0.000547                 0.000548                 0.000547
                 0.260265                 0.000570                 0.000570                 0.000570
                 0.270275                 0.000592                 0.000592                 0.000592
                 0.280285                 0.000614                 0.000615                 0.000614
                 0.290296                 0.000637                 0.000637                 0.000637
                 0.300306                 0.000659                 0.000660                 0.000659
                 0.310316                 0.000682                 0.000682                 0.000682
                 0.320326                 0.000704                 0.000705                 0.000704
                 0.330336                 0.000727                 0.000727                 0.000727
                 0.340347                 0.000749                 0.000750                 0.000749
                 0.350357                 0.000772                 0.000772                 0.000772
                 0.360367                 0.000795                 0.000795                 0.000795
                 0.370377                 0.000818                 0.000818                 0.000818
                 0.380387                 0.000841                 0.000841                 0.000841
                 0.390398                 0.000863                 0.000864                 0.000863
                 0.400408                 0.000886                 0.000887                 0.000886
                 0.410418                 0.000910                 0.000910                 0.000910
                 0.420428                 0.000933                 0.000933                 0.000933
                 0.430438                 0.000956                 0.000956                 0.000956
                 0.440449                 0.000979                 0.000980                 0.000979
                 0.450459                 0.001003                 0.001003                 0.001003
                 0.460469                 0.001026                 0.001026                 0.001026
                 0.470479                 0.001049                 0.001050                 0.001049
                 0.480489                 0.001073                 0.001074                 0.001073
                 0.490499                 0.001097                 0.001097                 0.001097
                 0.500510                 0.001121                 0.001121                 0.001121
                 0.510520                 0.001144                 0.001145                 0.001144
                 0.520530                 0.001168                 0.001169                 0.001168
                 0.530540                 0.001192                 0.001193                 0.001192
                 0.540550                 0.001216                 0.001217                 0.001216
                 0.550561                 0.001241                 0.001241                 0.001241
                 0.560571                 0.001265                 0.001266                 0.001265
                 0.570581                 0.001290                 0.001290                 0.001290
                 0.580591                 0.001314                 0.001315                 0.001314
                 0.590601                 0.001339                 0.001339                 0.001339
                 0.600612                 0.001363                 0.001364                 0.001363
                 0.610622                 0.001388                 0.001389                 0.001388
                 0.620632                 0.001413                 0.001414                 0.001413
                 0.630642                 0.001438                 0.001439                 0.001438
                 0.640652                 0.001464                 0.001464                 0.001464
                 0.650663                 0.001489                 0.001490                 0.001489
                 0.660673                 0.001514                 0.001515                 0.001514
                 0.670683                 0.001540                 0.001541                 0.001540
                 0.680693                 0.001566                 0.001567                 0.001566
                 0.690703                 0.001592                 0.001592                 0.001592
                 0.700714                 0.001618                 0.001618                 0.001618
                 0.710724                 0.001644                 0.001645                 0.001644
                 0.720734                 0.001670                 0.001671                 0.001670
                 0.730744                 0.001697                 0.001697                 0.001697
                 0.740754                 0.001723                 0.001724                 0.001723
                 0.750765                 0.001750                 0.001751                 0.001750
                 0.760775                 0.001777                 0.001778                 0.001777
                 0.770785                 0.001804                 0.001805                 0.001804
                 0.780795                 0.001831                 0.001832                 0.001831
                 0.790805                 0.001858                 0.001859                 0.001858
                 0.800816                 0.001886                 0.001887                 0.001886
                 0.810826                 0.001914                 0.001915                 0.001914
                 0.820836                 0.001942                 0.001943                 0.001942
                 0.830846                 0.001970                 0.001971                 0.001970
                 0.840856                 0.001998                 0.001999                 0.001998
                 0.850866                 0.002027                 0.002028                 0.002027
                 0.860877                 0.002055                 0.002056                 0.002055
                 0.870887                 0.002084                 0.002085                 0.002084
                 0.880897                 0.002113                 0.002114                 0.002113
                 0.890907                 0.002142                 0.002143                 0.002142
                 0.900917                 0.002172                 0.002173                 0.002172
                 0.910928                 0.002202                 0.002203                 0.002202
                 0.920938                 0.002231                 0.002233                 0.002231
                 0.930948                 0.002262                 0.002263                 0.002262
                 0.940958                 0.002292                 0.002293                 0.002292
                 0.950968                 0.002323                 0.002324                 0.002323
                 0.960979                 0.002353                 0.002355                 0.002353
                 0.970989                 0.002384                 0.002386                 0.002384
                 0.980999                 0.002416                 0.002417                 0.002416
                 0.991009                 0.002447                 0.002449                 0.002447
                 1.001019                 0.002479                 0.002480                 0.002479
                 1.011030                 0.002511                 0.002513                 0.002511
                 1.021040                 0.002544                 0.002545                 0.002544
                 1.031050                 0.002576                 0.002578                 0.002576
                 1.041060                 0.002609                 0.002611                 0.002609
                 1.051070                 0.002643                 0.002644                 0.002643
                 1.061081                 0.002676                 0.002677                 0.002676
                 1.071091                 0.002710                 0.002711                 0.002710
                 1.081101                 0.002744                 0.002745                 0.002744
                 1.091111                 0.002779                 0.002780                 0.002779
                 1.101121                 0.002813                 0.002815                 0.002813
                 1.111132                 0.002848                 0.002850                 0.002848
                 1.121142                 0.002884                 0.002885                 0.002884
                 1.131152                 0.002920                 0.002921                 0.002920
                 1.141162                 0.002956                 0.002957                 0.002956
                 1.151172                 0.002992                 0.002994                 0.002992
                 1.161182                 0.003029                 0.003031                 0.003029
                 1.171193                 0.003066                 0.003068                 0.003066
                 1.181203                 0.003104                 0.003106                 0.003104
                 1.191213                 0.003142                 0.003144                 0.003142
                 1.201223                 0.003180                 0.003182                 0.003180
                 1.211233                 0.003219                 0.003221                 0.003219
                 1.221244                 0.003259                 0.003260                 0.003259
                 1.231254                 0.003298                 0.003300                 0.003298
                 1.241264                 0.003338                 0.003340                 0.003338
                 1.251274                 0.003379                 0.003381                 0.003379
                 1.261284                 0.003420                 0.003422                 0.003420
                 1.271295                 0.003461                 0.003463                 0.003461
                 1.281305                 0.003503                 0.003505                 0.003503
                 1.291315                 0.003546                 0.003548                 0.003546
                 1.301325                 0.003589                 0.003591                 0.003589
                 1.311335                 0.003632                 0.003634                 0.003632
                 1.321346                 0.003677                 0.003678                 0.003677
                 1.331356                 0.003721                 0.003723                 0.003721
                 1.341366                 0.003766                 0.003768                 0.003766
                 1.351376                 0.003812                 0.003814                 0.003812
                 1.361386                 0.003858                 0.003860                 0.003858
                 1.371397                 0.003905                 0.003907                 0.003905
                 1.381407                 0.003953                 0.003955                 0.003953
                 1.391417                 0.004001                 0.004003                 0.004001
                 1.401427                 0.004050                 0.004052                 0.004050
                 1.411437                 0.004099                 0.004101                 0.004099
                 1.421448                 0.004149                 0.004151                 0.004149
                 1.431458                 0.004200                 0.004202                 0.004200
                 1.441468                 0.004252                 0.004254                 0.004252
                 1.451478                 0.004304                 0.004306                 0.004304
                 1.461488                 0.004357                 0.004359                 0.004357
                 1.471498                 0.004411                 0.004413                 0.004411
                 1.481509                 0.004465                 0.004467                 0.004465
                 1.491519                 0.004521                 0.004523                 0.004521
                 1.501529                 0.004577                 0.004579                 0.004577
                 1.511539                 0.004634                 0.004636                 0.004634
                 1.521549                 0.004692                 0.004694                 0.004692
                 1.531560                 0.004751                 0.004753                 0.004751
                 1.541570                 0.004811                 0.004813                 0.004811
                 1.551580                 0.004871                 0.004874                 0.004871
                 1.561590                 0.004933                 0.004935                 0.004933
                 1.571600                 0.004996                 0.004998                 0.004996
                 1.581611                 0.005060                 0.005062                 0.005060
                 1.591621                 0.005124                 0.005127                 0.005125
                 1.601631                 0.005190                 0.005193                 0.005190
                 1.611641                 0.005257                 0.005260                 0.005258
                 1.621651                 0.005326                 0.005328                 0.005326
                 1.631662                 0.005395                 0.005398                 0.005395
                 1.641672                 0.005466                 0.005468                 0.005466
                 1.651682                 0.005538                 0.005540                 0.005538
                 1.661692                 0.005611                 0.005613                 0.005611
                 1.671702                 0.005685                 0.005688                 0.005686
                 1.681713                 0.005761                 0.005764                 0.005761
                 1.691723                 0.005839                 0.005841                 0.005839
                 1.701733                 0.005917                 0.005920                 0.005918
                 1.711743                 0.005998                 0.006001                 0.005998
                 1.721753                 0.006080                 0.006083                 0.006080
                 1.731764                 0.006163                 0.006166                 0.006163
                 1.741774                 0.006248                 0.006251                 0.006249
                 1.751784                 0.006335                 0.006338                 0.006336
                 1.761794                 0.006424                 0.006427                 0.006424
                 1.771804                 0.006514                 0.006518                 0.006515
                 1.781814                 0.006607                 0.006610                 0.006607
                 1.791825                 0.006701                 0.006704                 0.006702
                 1.801835                 0.006798                 0.006801                 0.006798
                 1.811845                 0.006896                 0.006899                 0.006896
                 1.821855                 0.006997                 0.007000                 0.006997
                 1.831865                 0.007099                 0.007103                 0.007100
                 1.841876                 0.007204                 0.007208                 0.007205
                 1.851886                 0.007312                 0.007316                 0.007313
                 1.861896                 0.007422                 0.007426                 0.007423
                 1.871906                 0.007534                 0.007538                 0.007535
                 1.881916                 0.007650                 0.007653                 0.007650
                 1.891927                 0.007768                 0.007771                 0.007768
                 1.901937                 0.007888                 0.007892                 0.007889
                 1.911947                 0.008012                 0.008016                 0.008013
                 1.921957                 0.008139                 0.008143                 0.008140
                 1.931967                 0.008269                 0.008273                 0.008270
                 1.941978                 0.008402                 0.008406                 0.008403
                 1.951988                 0.008539                 0.008543                 0.008540
                 1.961998                 0.008679                 0.008683                 0.008680
