#        Energy grid [eV]               Re(eps)                  Im(eps)               refractive_index          extinct_coeff             reflectivity
#
                 0.000000             -2378.078296                 Infinity                 Infinity                 Infinity                      NaN
                 0.010010             -2371.697128             45877.374315               147.592243               155.419327                 0.987231
                 0.020020             -2352.757004             22755.912524               101.302663               112.316457                 0.982444
                 0.030031             -2321.852072             14971.784000                80.090264                93.468190                 0.979078
                 0.040041             -2279.921574             11026.520730                67.006861                82.279043                 0.976478
                 0.050051             -2228.180884              8621.495008                57.777986                74.608823                 0.974382
                 0.060061             -2168.038349              6991.118336                50.752010                68.875285                 0.972648
                 0.070071             -2101.007859              5807.572367                45.138253                64.330939                 0.971191
                 0.080082             -2028.626189              4907.003134                40.504175                60.574041                 0.969951
                 0.090092             -1952.381943              4198.277352                36.590055                57.369104                 0.968888
                 0.100102             -1873.660189              3626.515228                33.228583                54.569212                 0.967968
                 0.110112             -1793.704166              3156.544400                30.305782                52.078254                 0.967168
                 0.120122             -1713.593224              2764.653036                27.740342                49.830912                 0.966468
                 0.130133             -1634.234742              2434.169936                25.471974                47.781337                 0.965853
                 0.140143             -1556.366990              2152.953966                23.454493                45.896408                 0.965310
                 0.150153             -1480.569800              1911.897766                21.651539                44.151545                 0.964829
                 0.160163             -1407.280141              1703.998485                20.033823                42.528040                 0.964401
                 0.170173             -1336.810228              1523.759366                18.577311                41.011300                 0.964018
                 0.180183             -1269.366317              1366.791537                17.261972                39.589670                 0.963675
                 0.190194             -1205.066915              1229.540967                16.070902                38.253638                 0.963366
                 0.200204             -1143.959593              1109.095974                14.989696                36.995278                 0.963087
                 0.210214             -1086.035946              1003.048036                14.005974                35.807866                 0.962834
                 0.220224             -1031.244536               909.388792                13.109024                34.685603                 0.962603
                 0.230234              -979.501813               826.432217                12.289532                33.623421                 0.962393
                 0.240245              -930.701163               752.754738                11.539359                32.616836                 0.962200
                 0.250255              -884.720244               687.148414                10.851364                31.661844                 0.962023
                 0.260265              -841.426842               628.583813                10.219266                30.754841                 0.961859
                 0.270275              -800.683474               576.180246                 9.637519                29.892562                 0.961707
                 0.280285              -762.350922               529.181637                 9.101215                29.072032                 0.961567
                 0.290296              -726.290910               486.936827                 8.606003                28.290532                 0.961435
                 0.300306              -692.368068               448.883347                 8.148015                27.545566                 0.961313
                 0.310316              -660.451350               414.533994                 7.723803                26.834837                 0.961197
                 0.320326              -630.414989               383.465654                 7.330294                26.156227                 0.961089
                 0.330336              -602.139121               355.309948                 6.964738                25.507777                 0.960986
                 0.340347              -575.510136               329.745389                 6.624672                24.887676                 0.960889
                 0.350357              -550.420827               306.490758                 6.307888                24.294244                 0.960797
                 0.360367              -526.770390               285.299521                 6.012401                23.725922                 0.960709
                 0.370377              -504.464316               265.955075                 5.736424                23.181261                 0.960625
                 0.380387              -483.414194               248.266718                 5.478345                22.658916                 0.960545
                 0.390398              -463.537479               232.066207                 5.236711                22.157631                 0.960467
                 0.400408              -444.757205               217.204818                 5.010205                21.676240                 0.960392
                 0.410418              -427.001696               203.550825                 4.797638                21.213652                 0.960320
                 0.420428              -410.204251               190.987336                 4.597927                20.768851                 0.960250
                 0.430438              -394.302846               179.410429                 4.410093                20.340889                 0.960182
                 0.440449              -379.239825               168.727547                 4.233243                19.928878                 0.960115
                 0.450459              -364.961608               158.856108                 4.066563                19.531988                 0.960050
                 0.460469              -351.418408               149.722303                 3.909312                19.149442                 0.959987
                 0.470479              -338.563967               141.260054                 3.760814                18.780514                 0.959925
                 0.480489              -326.355296               133.410103                 3.620450                18.424520                 0.959863
                 0.490499              -314.752443               126.119226                 3.487652                18.080823                 0.959803
                 0.500510              -303.718262               119.339540                 3.361901                17.748821                 0.959743
                 0.510520              -293.218211               113.027904                 3.242719                17.427950                 0.959684
                 0.520530              -283.220156               107.145388                 3.129670                17.117681                 0.959626
                 0.530540              -273.694190               101.656811                 3.022349                16.817514                 0.959568
                 0.540550              -264.612466                96.530335                 2.920386                16.526982                 0.959511
                 0.550561              -255.949042                91.737107                 2.823438                16.245641                 0.959454
                 0.560571              -247.679741                87.250941                 2.731188                15.973075                 0.959397
                 0.570581              -239.782018                83.048042                 2.643345                15.708892                 0.959340
                 0.580591              -232.234834                79.106758                 2.559638                15.452721                 0.959283
                 0.590601              -225.018553                75.407364                 2.479818                15.204212                 0.959226
                 0.600612              -218.114828                71.931864                 2.403652                14.963034                 0.959170
                 0.610622              -211.506515                68.663821                 2.330926                14.728874                 0.959113
                 0.620632              -205.177578                65.588207                 2.261438                14.501437                 0.959056
                 0.630642              -199.113012                62.691261                 2.195004                14.280443                 0.958999
                 0.640652              -193.298769                59.960372                 2.131450                14.065627                 0.958941
                 0.650663              -187.721684                57.383968                 2.070616                13.856736                 0.958883
                 0.660673              -182.369420                54.951419                 2.012352                13.653534                 0.958825
                 0.670683              -177.230401                52.652949                 1.956516                13.455793                 0.958767
                 0.680693              -172.293764                50.479559                 1.902979                13.263299                 0.958708
                 0.690703              -167.549306                48.422959                 1.851618                13.075848                 0.958648
                 0.700714              -162.987439                46.475499                 1.802320                12.893246                 0.958588
                 0.710724              -158.599149                44.630118                 1.754976                12.715309                 0.958528
                 0.720734              -154.375955                42.880290                 1.709487                12.541862                 0.958467
                 0.730744              -150.309872                41.219976                 1.665758                12.372737                 0.958406
                 0.740754              -146.393381                39.643588                 1.623702                12.207776                 0.958344
                 0.750765              -142.619395                38.145944                 1.583236                12.046827                 0.958281
                 0.760775              -138.981230                36.722239                 1.544282                11.889745                 0.958217
                 0.770785              -135.472581                35.368013                 1.506767                11.736393                 0.958153
                 0.780795              -132.087496                34.079121                 1.470621                11.586640                 0.958088
                 0.790805              -128.820353                32.851708                 1.435781                11.440359                 0.958023
                 0.800816              -125.665837                31.682187                 1.402185                11.297432                 0.957956
                 0.810826              -122.618925                30.567217                 1.369776                11.157742                 0.957889
                 0.820836              -119.674864                29.503685                 1.338499                11.021182                 0.957821
                 0.830846              -116.829154                28.488685                 1.308303                10.887645                 0.957752
                 0.840856              -114.077536                27.519505                 1.279140                10.757032                 0.957682
                 0.850866              -111.415972                26.593612                 1.250964                10.629247                 0.957612
                 0.860877              -108.840635                25.708637                 1.223732                10.504197                 0.957540
                 0.870887              -106.347896                24.862364                 1.197402                10.381795                 0.957467
                 0.880897              -103.934310                24.052720                 1.171936                10.261956                 0.957394
                 0.890907              -101.596607                23.277760                 1.147298                10.144600                 0.957319
                 0.900917               -99.331682                22.535663                 1.123452                10.029647                 0.957244
                 0.910928               -97.136584                21.824720                 1.100366                 9.917025                 0.957167
                 0.920938               -95.008508                21.143326                 1.078008                 9.806661                 0.957089
                 0.930948               -92.944783                20.489976                 1.056349                 9.698487                 0.957011
                 0.940958               -90.942873                19.863253                 1.035360                 9.592437                 0.956931
                 0.950968               -89.000359                19.261825                 1.015015                 9.488446                 0.956850
                 0.960979               -87.114939                18.684440                 0.995287                 9.386455                 0.956767
                 0.970989               -85.284421                18.129919                 0.976154                 9.286404                 0.956684
                 0.980999               -83.506714                17.597149                 0.957591                 9.188237                 0.956599
                 0.991009               -81.779824                17.085084                 0.939577                 9.091899                 0.956513
                 1.001019               -80.101850                16.592736                 0.922091                 8.997339                 0.956426
                 1.011030               -78.470976                16.119172                 0.905113                 8.904505                 0.956338
                 1.021040               -76.885471                15.663513                 0.888624                 8.813349                 0.956248
                 1.031050               -75.343680                15.224928                 0.872606                 8.723825                 0.956157
                 1.041060               -73.844021                14.802631                 0.857042                 8.635887                 0.956064
                 1.051070               -72.384983                14.395879                 0.841914                 8.549491                 0.955971
                 1.061081               -70.965121                14.003971                 0.827208                 8.464597                 0.955875
                 1.071091               -69.583053                13.626240                 0.812909                 8.381162                 0.955778
                 1.081101               -68.237457                13.262057                 0.799001                 8.299148                 0.955680
                 1.091111               -66.927067                12.910825                 0.785472                 8.218518                 0.955580
                 1.101121               -65.650669                12.571980                 0.772307                 8.139234                 0.955479
                 1.111132               -64.407105                12.244984                 0.759496                 8.061262                 0.955376
                 1.121142               -63.195259                11.929329                 0.747024                 7.984567                 0.955272
                 1.131152               -62.014067                11.624533                 0.734882                 7.909116                 0.955165
                 1.141162               -60.862505                11.330136                 0.723058                 7.834878                 0.955058
                 1.151172               -59.739593                11.045704                 0.711541                 7.761822                 0.954948
                 1.161182               -58.644389                10.770823                 0.700321                 7.689918                 0.954837
                 1.171193               -57.575990                10.505099                 0.689389                 7.619137                 0.954724
                 1.181203               -56.533530                10.248158                 0.678735                 7.549451                 0.954609
                 1.191213               -55.516174                 9.999644                 0.668351                 7.480833                 0.954492
                 1.201223               -54.523124                 9.759219                 0.658227                 7.413258                 0.954374
                 1.211233               -53.553609                 9.526559                 0.648356                 7.346698                 0.954253
                 1.221244               -52.606891                 9.301357                 0.638730                 7.281131                 0.954131
                 1.231254               -51.682260                 9.083321                 0.629341                 7.216532                 0.954007
                 1.241264               -50.779031                 8.872171                 0.620182                 7.152878                 0.953880
                 1.251274               -49.896547                 8.667641                 0.611246                 7.090146                 0.953752
                 1.261284               -49.034175                 8.469477                 0.602525                 7.028315                 0.953621
                 1.271295               -48.191306                 8.277436                 0.594015                 6.967364                 0.953488
                 1.281305               -47.367353                 8.091287                 0.585708                 6.907272                 0.953353
                 1.291315               -46.561751                 7.910810                 0.577598                 6.848020                 0.953216
                 1.301325               -45.773956                 7.735792                 0.569681                 6.789587                 0.953076
