#        Frequency (eV)           Re(1/eps)            -Im(1/eps)               Re(eps)                Im(eps)
     0.000000000000000E+00  0.174011269589538E+00  0.184671498429172E-14  0.574675423240588E+01  0.609881025353077E-13
     0.100000000000000E-01  0.174010772056674E+00  0.526060667130850E-04  0.574677013834497E+01  0.173733481961725E-02
     0.200000000000000E-01  0.174009279452452E+00  0.105217818283257E-03  0.574681785663141E+01  0.347491604383803E-02
     0.300000000000000E-01  0.174006791760040E+00  0.157840943828882E-03  0.574689738867046E+01  0.521299024446351E-02
     0.400000000000000E-01  0.174003308951567E+00  0.210481140986094E-03  0.574700873679730E+01  0.695180432755362E-02
     0.500000000000000E-01  0.173998830988389E+00  0.263144120181538E-03  0.574715190426649E+01  0.869160570106801E-02
     0.600000000000000E-01  0.173993357821491E+00  0.315835608916579E-03  0.574732689523685E+01  0.104326424429494E-01
     0.700000000000000E-01  0.173986889391968E+00  0.368561356069240E-03  0.574753371475246E+01  0.121751634698783E-01
     0.800000000000000E-01  0.173979425631646E+00  0.421327136218294E-03  0.574777236871900E+01  0.139194187068665E-01
     0.900000000000000E-01  0.173970966463815E+00  0.474138753993901E-03  0.574804286387541E+01  0.156656592578526E-01
     0.100000000000000E+00  0.173961511804063E+00  0.527002048459194E-03  0.574834520776146E+01  0.174141375774715E-01
     0.110000000000000E+00  0.173951061561264E+00  0.579922897527181E-03  0.574867940867987E+01  0.191651076441539E-01
     0.120000000000000E+00  0.173939615638666E+00  0.632907222417298E-03  0.574904547565411E+01  0.209188251347276E-01
     0.130000000000000E+00  0.173927173935123E+00  0.685960992155935E-03  0.574944341838082E+01  0.226755476006758E-01
     0.140000000000000E+00  0.173913736346464E+00  0.739090228125239E-03  0.574987324717697E+01  0.244355346462180E-01
     0.150000000000000E+00  0.173899302766992E+00  0.792301008664400E-03  0.575033497292183E+01  0.261990481083683E-01
     0.160000000000000E+00  0.173883873091142E+00  0.845599473727619E-03  0.575082860699291E+01  0.279663522391294E-01
     0.170000000000000E+00  0.173867447215285E+00  0.898991829602912E-03  0.575135416119617E+01  0.297377138899727E-01
     0.180000000000000E+00  0.173850025039690E+00  0.952484353695771E-03  0.575191164769004E+01  0.315134026987598E-01
     0.190000000000000E+00  0.173831606470665E+00  0.100608339938169E-02  0.575250107890274E+01  0.332936912792435E-01
     0.200000000000000E+00  0.173812191422860E+00  0.105979540093138E-02  0.575312246744303E+01  0.350788554132989E-01
     0.210000000000000E+00  0.173791779821755E+00  0.111362687851256E-02  0.575377582600370E+01  0.368691742460161E-01
     0.220000000000000E+00  0.173770371606365E+00  0.116758444327175E-02  0.575446116725712E+01  0.386649304837806E-01
     0.230000000000000E+00  0.173747966732115E+00  0.122167480249975E-02  0.575517850374362E+01  0.404664105954813E-01
     0.240000000000000E+00  0.173724565173951E+00  0.127590476488395E-02  0.575592784775090E+01  0.422739050169444E-01
     0.250000000000000E+00  0.173700166929680E+00  0.133028124585068E-02  0.575670921118464E+01  0.440877083587090E-01
     0.260000000000000E+00  0.173674772023545E+00  0.138481127300041E-02  0.575752260542982E+01  0.459081196172407E-01
     0.270000000000000E+00  0.173648380510043E+00  0.143950199163829E-02  0.575836804120254E+01  0.477354423896739E-01
     0.280000000000000E+00  0.173620992478033E+00  0.149436067040253E-02  0.575924552839058E+01  0.495699850921393E-01
     0.290000000000000E+00  0.173592608055112E+00  0.154939470699240E-02  0.576015507588363E+01  0.514120611817532E-01
     0.300000000000000E+00  0.173563227412294E+00  0.160461163399739E-02  0.576109669139145E+01  0.532619893822960E-01
     0.310000000000000E+00  0.173532850769009E+00  0.166001912482874E-02  0.576207038124974E+01  0.551200939136071E-01
     0.320000000000000E+00  0.173501478398444E+00  0.171562499975372E-02  0.576307615021272E+01  0.569867047246905E-01
     0.330000000000000E+00  0.173469110633222E+00  0.177143723203300E-02  0.576411400123211E+01  0.588621577305170E-01
     0.340000000000000E+00  0.173435747871492E+00  0.182746395415999E-02  0.576518393522068E+01  0.607467950524506E-01
     0.350000000000000E+00  0.173401390583383E+00  0.188371346420136E-02  0.576628595080103E+01  0.626409652622470E-01
     0.360000000000000E+00  0.173366039317906E+00  0.194019423223603E-02  0.576742004403720E+01  0.645450236294789E-01
     0.370000000000000E+00  0.173329694710308E+00  0.199691490688988E-02  0.576858620814858E+01  0.664593323722402E-01
     0.380000000000000E+00  0.173292357489885E+00  0.205388432196198E-02  0.576978443320565E+01  0.683842609109468E-01
     0.390000000000000E+00  0.173254028488324E+00  0.211111150313691E-02  0.577101470580553E+01  0.703201861249612E-01
     0.400000000000000E+00  0.173214708648565E+00  0.216860567477688E-02  0.577227700872678E+01  0.722674926117637E-01
     0.410000000000000E+00  0.173174399034240E+00  0.222637626678547E-02  0.577357132056186E+01  0.742265729482953E-01
     0.420000000000000E+00  0.173133100839717E+00  0.228443292153349E-02  0.577489761532597E+01  0.761978279540497E-01
     0.430000000000000E+00  0.173090815400771E+00  0.234278550083558E-02  0.577625586204139E+01  0.781816669554315E-01
     0.440000000000000E+00  0.173047544205957E+00  0.240144409296434E-02  0.577764602429441E+01  0.801785080507550E-01
     0.450000000000000E+00  0.173003288908671E+00  0.246041901968630E-02  0.577906805976548E+01  0.821887783752756E-01
     0.460000000000000E+00  0.172958051339994E+00  0.251972084330199E-02  0.578052191972869E+01  0.842129143654175E-01
     0.470000000000000E+00  0.172911833522334E+00  0.257936037366939E-02  0.578200754852033E+01  0.862513620213524E-01
     0.480000000000000E+00  0.172864637683908E+00  0.263934867518713E-02  0.578352488297444E+01  0.883045771669205E-01
     0.490000000000000E+00  0.172816466274147E+00  0.269969707371065E-02  0.578507385182267E+01  0.903730257057227E-01
     0.500000000000000E+00  0.172767321980029E+00  0.276041716337077E-02  0.578665437505785E+01  0.924571838721372E-01
     0.510000000000000E+00  0.172717207743448E+00  0.282152081326013E-02  0.578826636325739E+01  0.945575384757441E-01
     0.520000000000000E+00  0.172666126779610E+00  0.288302017394850E-02  0.578990971686655E+01  0.966745871375969E-01
     0.530000000000000E+00  0.172614082596584E+00  0.294492768378329E-02  0.579158432543694E+01  0.988088385164129E-01
     0.540000000000000E+00  0.172561079016019E+00  0.300725607492595E-02  0.579329006681980E+01  0.100960812522705E+00
     0.550000000000000E+00  0.172507120195114E+00  0.307001837906929E-02  0.579502680631076E+01  0.103131040518507E+00
     0.560000000000000E+00  0.172452210649901E+00  0.313322793277423E-02  0.579679439574332E+01  0.105320065500143E+00
     0.570000000000000E+00  0.172396355279908E+00  0.319689838235738E-02  0.579859267252957E+01  0.107528442261213E+00
     0.580000000000000E+00  0.172339559394284E+00  0.326104368825310E-02  0.580042145864382E+01  0.109756737532576E+00
     0.590000000000000E+00  0.172281828739443E+00  0.332567812876537E-02  0.580228055954807E+01  0.112005530095884E+00
     0.600000000000000E+00  0.172223169528312E+00  0.339081630311531E-02  0.580416976305537E+01  0.114275410866722E+00
     0.610000000000000E+00  0.172163588471245E+00  0.345647313368023E-02  0.580608883812932E+01  0.116566982943124E+00
     0.620000000000000E+00  0.172103092808702E+00  0.352266386730927E-02  0.580803753361562E+01  0.118880861614645E+00
     0.630000000000000E+00  0.172041690345757E+00  0.358940407558836E-02  0.581001557690398E+01  0.121217674326840E+00
     0.640000000000000E+00  0.171979389488502E+00  0.365670965391458E-02  0.581202267251702E+01  0.123578060595361E+00
     0.650000000000000E+00  0.171916199282446E+00  0.372459681922589E-02  0.581405850062377E+01  0.125962671863393E+00
     0.660000000000000E+00  0.171852129452956E+00  0.379308210621694E-02  0.581612271547520E+01  0.128372171295497E+00
     0.670000000000000E+00  0.171787190447856E+00  0.386218236185527E-02  0.581821494375833E+01  0.130807233500259E+00
     0.680000000000000E+00  0.171721393482181E+00  0.393191473799467E-02  0.582033478286888E+01  0.133268544173559E+00
     0.690000000000001E+00  0.171654750585250E+00  0.400229668186338E-02  0.582248179909730E+01  0.135756799653289E+00
     0.700000000000001E+00  0.171587274649995E+00  0.407334592418463E-02  0.582465552573006E+01  0.138272706375855E+00
     0.710000000000001E+00  0.171518979484708E+00  0.414508046466511E-02  0.582685546106158E+01  0.140816980223619E+00
     0.720000000000001E+00  0.171449879867172E+00  0.421751855456415E-02  0.582908106631811E+01  0.143390345751781E+00
     0.730000000000001E+00  0.171379991601226E+00  0.429067867603172E-02  0.583133176349261E+01  0.145993535282126E+00
     0.740000000000001E+00  0.171309331575781E+00  0.436457951787746E-02  0.583360693309095E+01  0.148627287850070E+00
     0.750000000000001E+00  0.171237917826259E+00  0.443923994740595E-02  0.583590591179109E+01  0.151292347990421E+00
     0.760000000000001E+00  0.171165769598458E+00  0.451467897792472E-02  0.583822799001685E+01  0.153989464346136E+00
     0.770000000000001E+00  0.171092907414752E+00  0.459091573150230E-02  0.584057240943031E+01  0.156719388083295E+00
     0.780000000000001E+00  0.171019353142577E+00  0.466796939652272E-02  0.584293836034683E+01  0.159482871094297E+00
     0.790000000000001E+00  0.170945130065057E+00  0.474585917955185E-02  0.584532497907928E+01  0.162280663970185E+00
     0.800000000000001E+00  0.170870262953628E+00  0.482460425099960E-02  0.584773134521932E+01  0.165113513721843E+00
     0.810000000000001E+00  0.170794778142454E+00  0.490422368402971E-02  0.585015647886511E+01  0.167982161228608E+00
     0.820000000000001E+00  0.170718703604382E+00  0.498473638613824E-02  0.585259933780765E+01  0.170887338391841E+00
     0.830000000000001E+00  0.170642069028102E+00  0.506616102279133E-02  0.585505881469107E+01  0.173829764969937E+00
     0.840000000000001E+00  0.170564905896176E+00  0.514851593248448E-02  0.585753373416238E+01  0.176810145070273E+00
     0.850000000000001E+00  0.170487247563418E+00  0.523181903255962E-02  0.586002285003367E+01  0.179829163272965E+00
     0.860000000000001E+00  0.170409129335147E+00  0.531608771509381E-02  0.586252484247839E+01  0.182887480360500E+00
     0.870000000000001E+00  0.170330588544628E+00  0.540133873215601E-02  0.586503831529116E+01  0.185985728627133E+00
     0.880000000000001E+00  0.170251664628995E+00  0.548758806971683E-02  0.586756179324299E+01  0.189124506741785E+00
     0.890000000000001E+00  0.170172399202794E+00  0.557485080949215E-02  0.587009371956816E+01  0.192304374138436E+00
     0.900000000000001E+00  0.170092836128157E+00  0.566314097800775E-02  0.587263245362562E+01  0.195525844908880E+00
     0.910000000000001E+00  0.170013021580511E+00  0.575247138218896E-02  0.587517626878186E+01  0.198789381173834E+00
     0.920000000000001E+00  0.169933004108549E+00  0.584285343081075E-02  0.587772335056858E+01  0.202095385910373E+00
     0.930000000000001E+00  0.169852834687043E+00  0.593429694119165E-02  0.588027179517500E+01  0.205444195216274E+00
     0.940000000000001E+00  0.169772566760897E+00  0.602680993058164E-02  0.588281960834161E+01  0.208836069995378E+00
     0.950000000000001E+00  0.169692256278699E+00  0.612039839178386E-02  0.588536470472700E+01  0.212271187052359E+00
     0.960000000000001E+00  0.169611961713792E+00  0.621506605266521E-02  0.588790490782967E+01  0.215749629591116E+00
     0.970000000000000E+00  0.169531744070711E+00  0.631081411935622E-02  0.589043795055160E+01  0.219271377117597E+00
     0.980000000000000E+00  0.169451666874673E+00  0.640764100311705E-02  0.589296147649751E+01  0.222836294756085E+00
     0.990000000000000E+00  0.169371796141556E+00  0.650554203106217E-02  0.589547304211213E+01  0.226444121997737E+00
     0.100000000000000E+01  0.169292200325641E+00  0.660450914119121E-02  0.589797011976305E+01  0.230094460911486E+00
     0.101000000000000E+01  0.169212950242216E+00  0.670453056247161E-02  0.590045010188293E+01  0.233786763860484E+00
     0.102000000000000E+01  0.169134118961964E+00  0.680559048106665E-02  0.590291030628980E+01  0.237520320782292E+00
     0.103000000000000E+01  0.169055781673943E+00  0.690766869419799E-02  0.590534798280696E+01  0.241294246107812E+00
     0.104000000000000E+01  0.168978015513786E+00  0.701074025358073E-02  0.590776032130838E+01  0.245107465413006E+00
     0.105000000000000E+01  0.168900899353824E+00  0.711477510087031E-02  0.591014446131099E+01  0.248958701917829E+00
     0.106000000000000E+01  0.168824513551664E+00  0.721973769811434E-02  0.591249750323728E+01  0.252846462969763E+00
     0.107000000000000E+01  0.168748939653941E+00  0.732558665680594E-02  0.591481652146200E+01  0.256769026673202E+00
     0.108000000000000E+01  0.168674260052040E+00  0.743227436978427E-02  0.591709857924939E+01  0.260724428851646E+00
     0.109000000000000E+01  0.168600557586827E+00  0.753974665091576E-02  0.591934074567338E+01  0.264710450556108E+00
     0.110000000000000E+01  0.168527915099778E+00  0.764794238820588E-02  0.592154011459421E+01  0.268724606360042E+00
     0.111000000000000E+01  0.168456414928379E+00  0.775679321672177E-02  0.592369382574210E+01  0.272764133707751E+00
     0.112000000000000E+01  0.168386138344218E+00  0.786622321843594E-02  0.592579908793029E+01  0.276825983609027E+00
     0.113000000000000E+01  0.168317164933033E+00  0.797614865680615E-02  0.592785320438236E+01  0.280906812996108E+00
     0.114000000000000E+01  0.168249571916801E+00  0.808647775456427E-02  0.592985360012115E+01  0.285002979079878E+00
     0.115000000000000E+01  0.168183433419102E+00  0.819711052376442E-02  0.593179785131583E+01  0.289110536057956E+00
     0.116000000000000E+01  0.168118819676196E+00  0.830793865760883E-02  0.593368371643309E+01  0.293225234537846E+00
     0.117000000000000E+01  0.168055796197712E+00  0.841884549388735E-02  0.593550916897752E+01  0.297342524041154E+00
     0.118000000000000E+01  0.167994422882316E+00  0.852970605999710E-02  0.593727243154567E+01  0.301457558949356E+00
     0.119000000000000E+01  0.167934753095549E+00  0.864038720941104E-02  0.593897201084792E+01  0.305565208235272E+00
     0.120000000000000E+01  0.167876832718698E+00  0.875074785909675E-02  0.594060673328675E+01  0.309660069297071E+00
     0.121000000000000E+01  0.167820699179503E+00  0.886063933671352E-02  0.594217578060876E+01  0.313736486170944E+00
     0.122000000000000E+01  0.167766380477344E+00  0.896990584540072E-02  0.594367872508275E+01  0.317788572344527E+00
     0.123000000000000E+01  0.167713894217377E+00  0.907838505259068E-02  0.594511556359363E+01  0.321810238324670E+00
     0.124000000000000E+01  0.167663246669825E+00  0.918590880751596E-02  0.594648674998827E+01  0.325795224030604E+00
     0.125000000000000E+01  0.167614431872099E+00  0.929230398993313E-02  0.594779322496743E+01  0.329737135987406E+00
     0.126000000000000E+01  0.167567430792693E+00  0.939739349006527E-02  0.594903644278883E+01  0.333629489186287E+00
     0.127000000000000E+01  0.167522210576682E+00  0.950099731690571E-02  0.595021839403503E+01  0.337465753359626E+00
     0.128000000000000E+01  0.167478723893026E+00  0.960293382887541E-02  0.595134162370985E+01  0.341239403292931E+00
     0.129000000000000E+01  0.167436908403815E+00  0.970302107746211E-02  0.595240924395834E+01  0.344943972666496E+00
     0.130000000000000E+01  0.167396686374876E+00  0.980107825097776E-02  0.595342494076112E+01  0.348573110790560E+00
     0.131000000000000E+01  0.167357964445824E+00  0.989692720207234E-02  0.595439297403479E+01  0.352120641474639E+00
     0.132000000000000E+01  0.167320633575588E+00  0.999039403925450E-02  0.595531817067717E+01  0.355580623159185E+00
     0.133000000000000E+01  0.167284569176805E+00  0.100813107595404E-01  0.595620591022362E+01  0.358947409341215E+00
     0.134000000000000E+01  0.167249631449087E+00  0.101695168966200E-01  0.595706210293215E+01  0.362215708250602E+00
     0.135000000000000E+01  0.167215665917252E+00  0.102548611567368E-01  0.595789316028214E+01  0.365380640684706E+00
     0.136000000000000E+01  0.167182504176260E+00  0.103372030129564E-01  0.595870595804867E+01  0.368437794889837E+00
     0.137000000000000E+01  0.167149964839755E+00  0.104164142277595E-01  0.595950779230137E+01  0.371383277392154E+00
     0.138000000000000E+01  0.167117854684216E+00  0.104923802740225E-01  0.596030632885887E+01  0.374213758728659E+00
     0.139000000000000E+01  0.167085969975714E+00  0.105650016254977E-01  0.596110954690602E+01  0.376926513111698E+00
     0.140000000000000E+01  0.167054097961432E+00  0.106341948898782E-01  0.596192567764267E+01  0.379519451175982E+00
     0.141000000000000E+01  0.167022018503648E+00  0.106998937604113E-01  0.596276313897043E+01  0.381991145102147E+00
     0.142000000000000E+01  0.166989505829981E+00  0.107620497657178E-01  0.596363046733483E+01  0.384340845580762E+00
     0.143000000000000E+01  0.166956330370396E+00  0.108206328018847E-01  0.596453624792045E+01  0.386568490269848E+00
     0.144000000000000E+01  0.166922260649206E+00  0.108756314358555E-01  0.596548904443532E+01  0.388674703599041E+00
     0.145000000000000E+01  0.166887065198724E+00  0.109270529744795E-01  0.596649732973024E+01  0.390660787979100E+00
     0.146000000000000E+01  0.166850514460945E+00  0.109749232990898E-01  0.596756941846051E+01  0.392528706676107E+00
     0.147000000000000E+01  0.166812382644090E+00  0.110192864709536E-01  0.596871340293322E+01  0.394281058800471E+00
     0.148000000000000E+01  0.166772449502468E+00  0.110602041181801E-01  0.596993709317917E+01  0.395921047032886E+00
     0.149000000000000E+01  0.166730502010611E+00  0.110977546194751E-01  0.597124796215922E+01  0.397452438857687E+00
     0.150000000000000E+01  0.166686335905825E+00  0.111320321043530E-01  0.597265309686592E+01  0.398879522194543E+00
     0.151000000000000E+01  0.166639757077230E+00  0.111631452929024E-01  0.597415915591314E+01  0.400207056407754E+00
     0.152000000000000E+01  0.166590582783743E+00  0.111912162008743E-01  0.597577233403162E+01  0.401440219728178E+00
     0.153000000000000E+01  0.166538642688082E+00  0.112163787376532E-01  0.597749833371262E+01  0.402584554145699E+00
     0.154000000000000E+01  0.166483779698624E+00  0.112387772255826E-01  0.597934234406959E+01  0.403645908821507E+00
     0.155000000000000E+01  0.166425850615649E+00  0.112585648691621E-01  0.598130902682614E+01  0.404630383031943E+00
     0.156000000000000E+01  0.166364726582968E+00  0.112759022018862E-01  0.598340250919175E+01  0.405544269593225E+00
     0.157000000000000E+01  0.166300293350012E+00  0.112909555370354E-01  0.598562638325948E+01  0.406393999633216E+00
     0.158000000000000E+01  0.166232451353059E+00  0.113038954466777E-01  0.598798371145413E+01  0.407186089477354E+00
     0.159000000000000E+01  0.166161115627427E+00  0.113148952906101E-01  0.599047703747297E+01  0.407927090305493E+00
     0.160000000000000E+01  0.166086215564850E+00  0.113241298141015E-01  0.599310840210337E+01  0.408623541120437E+00
     0.161000000000000E+01  0.166007694532178E+00  0.113317738302205E-01  0.599587936326085E+01  0.409281925450683E+00
     0.162000000000000E+01  0.165925509368786E+00  0.113380009993572E-01  0.599879101957373E+01  0.409908632094014E+00
     0.163000000000000E+01  0.165839629780735E+00  0.113429827154048E-01  0.600184403684339E+01  0.410509920098596E+00
     0.164000000000000E+01  0.165750037649926E+00  0.113468871050324E-01  0.600503867672368E+01  0.411091888075761E+00
     0.165000000000000E+01  0.165656726276156E+00  0.113498781436429E-01  0.600837482699692E+01  0.411660447847219E+00
     0.166000000000000E+01  0.165559699569275E+00  0.113521148890354E-01  0.601185203286477E+01  0.412221302349038E+00
