# final state angular momentum:   1
# broadening parameter (in eV):   0.800000000000    
# absorbing atom type:   1
# Energy (eV)   sigma
  -10.00000000    0.00059360
   -9.95995996    0.00059586
   -9.91991992    0.00059813
   -9.87987988    0.00060041
   -9.83983984    0.00060271
   -9.79979980    0.00060502
   -9.75975976    0.00060735
   -9.71971972    0.00060969
   -9.67967968    0.00061204
   -9.63963964    0.00061441
   -9.59959960    0.00061679
   -9.55955956    0.00061919
   -9.51951952    0.00062160
   -9.47947948    0.00062402
   -9.43943944    0.00062646
   -9.39939940    0.00062892
   -9.35935936    0.00063138
   -9.31931932    0.00063387
   -9.27927928    0.00063637
   -9.23923924    0.00063888
   -9.19919920    0.00064141
   -9.15915916    0.00064396
   -9.11911912    0.00064652
   -9.07907908    0.00064910
   -9.03903904    0.00065169
   -8.99899900    0.00065430
   -8.95895896    0.00065693
   -8.91891892    0.00065957
   -8.87887888    0.00066223
   -8.83883884    0.00066490
   -8.79879880    0.00066759
   -8.75875876    0.00067030
   -8.71871872    0.00067303
   -8.67867868    0.00067577
   -8.63863864    0.00067853
   -8.59859860    0.00068131
   -8.55855856    0.00068410
   -8.51851852    0.00068692
   -8.47847848    0.00068975
   -8.43843844    0.00069260
   -8.39839840    0.00069547
   -8.35835836    0.00069835
   -8.31831832    0.00070126
   -8.27827828    0.00070418
   -8.23823824    0.00070713
   -8.19819820    0.00071009
   -8.15815816    0.00071307
   -8.11811812    0.00071607
   -8.07807808    0.00071909
   -8.03803804    0.00072213
   -7.99799800    0.00072520
   -7.95795796    0.00072828
   -7.91791792    0.00073138
   -7.87787788    0.00073450
   -7.83783784    0.00073764
   -7.79779780    0.00074081
   -7.75775776    0.00074399
   -7.71771772    0.00074720
   -7.67767768    0.00075043
   -7.63763764    0.00075368
   -7.59759760    0.00075695
   -7.55755756    0.00076025
   -7.51751752    0.00076356
   -7.47747748    0.00076690
   -7.43743744    0.00077026
   -7.39739740    0.00077365
   -7.35735736    0.00077706
   -7.31731732    0.00078049
   -7.27727728    0.00078395
   -7.23723724    0.00078743
   -7.19719720    0.00079093
   -7.15715716    0.00079446
   -7.11711712    0.00079801
   -7.07707708    0.00080159
   -7.03703704    0.00080520
   -6.99699700    0.00080883
   -6.95695696    0.00081248
   -6.91691692    0.00081616
   -6.87687688    0.00081987
   -6.83683684    0.00082360
   -6.79679680    0.00082736
   -6.75675676    0.00083115
   -6.71671672    0.00083496
   -6.67667668    0.00083881
   -6.63663664    0.00084268
   -6.59659660    0.00084657
   -6.55655656    0.00085050
   -6.51651652    0.00085445
   -6.47647648    0.00085844
   -6.43643644    0.00086245
   -6.39639640    0.00086649
   -6.35635636    0.00087057
   -6.31631632    0.00087467
   -6.27627628    0.00087880
   -6.23623624    0.00088297
   -6.19619620    0.00088716
   -6.15615616    0.00089139
   -6.11611612    0.00089565
   -6.07607608    0.00089994
   -6.03603604    0.00090426
   -5.99599600    0.00090862
   -5.95595596    0.00091301
   -5.91591592    0.00091743
   -5.87587588    0.00092189
   -5.83583584    0.00092638
   -5.79579580    0.00093090
   -5.75575576    0.00093546
   -5.71571572    0.00094006
   -5.67567568    0.00094469
   -5.63563564    0.00094936
   -5.59559560    0.00095406
   -5.55555556    0.00095881
   -5.51551552    0.00096358
   -5.47547548    0.00096840
   -5.43543544    0.00097326
   -5.39539540    0.00097815
   -5.35535536    0.00098308
   -5.31531532    0.00098805
   -5.27527528    0.00099307
   -5.23523524    0.00099812
   -5.19519520    0.00100321
   -5.15515516    0.00100835
   -5.11511512    0.00101352
   -5.07507508    0.00101874
   -5.03503504    0.00102400
   -4.99499499    0.00102931
   -4.95495495    0.00103465
   -4.91491491    0.00104005
   -4.87487487    0.00104548
   -4.83483483    0.00105097
   -4.79479479    0.00105650
   -4.75475475    0.00106207
   -4.71471471    0.00106769
   -4.67467467    0.00107336
   -4.63463463    0.00107908
   -4.59459459    0.00108485
   -4.55455455    0.00109066
   -4.51451451    0.00109653
   -4.47447447    0.00110244
   -4.43443443    0.00110841
   -4.39439439    0.00111443
   -4.35435435    0.00112050
   -4.31431431    0.00112662
   -4.27427427    0.00113280
   -4.23423423    0.00113903
   -4.19419419    0.00114532
   -4.15415415    0.00115166
   -4.11411411    0.00115806
   -4.07407407    0.00116451
   -4.03403403    0.00117103
   -3.99399399    0.00117760
   -3.95395395    0.00118423
   -3.91391391    0.00119092
   -3.87387387    0.00119767
   -3.83383383    0.00120448
   -3.79379379    0.00121136
   -3.75375375    0.00121830
   -3.71371371    0.00122530
   -3.67367367    0.00123237
   -3.63363363    0.00123950
   -3.59359359    0.00124670
   -3.55355355    0.00125397
   -3.51351351    0.00126130
   -3.47347347    0.00126871
   -3.43343343    0.00127618
   -3.39339339    0.00128373
   -3.35335335    0.00129134
   -3.31331331    0.00129904
   -3.27327327    0.00130680
   -3.23323323    0.00131464
   -3.19319319    0.00132256
   -3.15315315    0.00133055
   -3.11311311    0.00133862
   -3.07307307    0.00134677
   -3.03303303    0.00135500
   -2.99299299    0.00136332
   -2.95295295    0.00137171
   -2.91291291    0.00138019
   -2.87287287    0.00138875
   -2.83283283    0.00139741
   -2.79279279    0.00140614
   -2.75275275    0.00141497
   -2.71271271    0.00142389
   -2.67267267    0.00143290
   -2.63263263    0.00144200
   -2.59259259    0.00145119
   -2.55255255    0.00146048
   -2.51251251    0.00146987
   -2.47247247    0.00147936
   -2.43243243    0.00148894
   -2.39239239    0.00149863
   -2.35235235    0.00150842
   -2.31231231    0.00151832
   -2.27227227    0.00152832
   -2.23223223    0.00153843
   -2.19219219    0.00154865
   -2.15215215    0.00155898
   -2.11211211    0.00156942
   -2.07207207    0.00157997
   -2.03203203    0.00159065
   -1.99199199    0.00160144
   -1.95195195    0.00161235
   -1.91191191    0.00162338
   -1.87187187    0.00163454
   -1.83183183    0.00164583
   -1.79179179    0.00165724
   -1.75175175    0.00166878
   -1.71171171    0.00168045
   -1.67167167    0.00169226
   -1.63163163    0.00170421
   -1.59159159    0.00171629
   -1.55155155    0.00172852
   -1.51151151    0.00174089
   -1.47147147    0.00175341
   -1.43143143    0.00176607
   -1.39139139    0.00177889
   -1.35135135    0.00179186
   -1.31131131    0.00180498
   -1.27127127    0.00181827
   -1.23123123    0.00183172
   -1.19119119    0.00184533
   -1.15115115    0.00185911
   -1.11111111    0.00187306
   -1.07107107    0.00188719
   -1.03103103    0.00190149
   -0.99099099    0.00191597
   -0.95095095    0.00193064
   -0.91091091    0.00194549
   -0.87087087    0.00196054
   -0.83083083    0.00197578
   -0.79079079    0.00199121
   -0.75075075    0.00200685
   -0.71071071    0.00202269
   -0.67067067    0.00203874
   -0.63063063    0.00205501
   -0.59059059    0.00207149
   -0.55055055    0.00208819
   -0.51051051    0.00210512
   -0.47047047    0.00212228
   -0.43043043    0.00213967
   -0.39039039    0.00215731
   -0.35035035    0.00217519
   -0.31031031    0.00219331
   -0.27027027    0.00221169
   -0.23023023    0.00223034
   -0.19019019    0.00224924
   -0.15015015    0.00226842
   -0.11011011    0.00228787
   -0.07007007    0.00230751
   -0.03003003    0.00232746
    0.01001001    0.00234776
    0.05005005    0.00236841
    0.09009009    0.00238944
    0.13013013    0.00241072
    0.17017017    0.00243227
    0.21021021    0.00245416
    0.25025025    0.00247638
    0.29029029    0.00249894
    0.33033033    0.00252185
    0.37037037    0.00254512
    0.41041041    0.00256876
    0.45045045    0.00259277
    0.49049049    0.00261717
    0.53053053    0.00264196
    0.57057057    0.00266715
    0.61061061    0.00269276
    0.65065065    0.00271878
    0.69069069    0.00274524
    0.73073073    0.00277215
    0.77077077    0.00279950
    0.81081081    0.00282733
    0.85085085    0.00285563
    0.89089089    0.00288442
    0.93093093    0.00291371
    0.97097097    0.00294352
    1.01101101    0.00297385
    1.05105105    0.00300473
    1.09109109    0.00303616
    1.13113113    0.00306817
    1.17117117    0.00310076
    1.21121121    0.00313396
    1.25125125    0.00316778
    1.29129129    0.00320223
    1.33133133    0.00323734
    1.37137137    0.00327313
    1.41141141    0.00330961
    1.45145145    0.00334680
    1.49149149    0.00338472
    1.53153153    0.00342340
    1.57157157    0.00346286
    1.61161161    0.00350313
    1.65165165    0.00354422
    1.69169169    0.00358616
    1.73173173    0.00362898
    1.77177177    0.00367270
    1.81181181    0.00371736
    1.85185185    0.00376299
    1.89189189    0.00380961
    1.93193193    0.00385726
    1.97197197    0.00390598
    2.01201201    0.00395579
    2.05205205    0.00400675
    2.09209209    0.00405887
    2.13213213    0.00411222
    2.17217217    0.00416682
    2.21221221    0.00422273
    2.25225225    0.00427999
    2.29229229    0.00433865
    2.33233233    0.00439877
    2.37237237    0.00446039
    2.41241241    0.00452357
    2.45245245    0.00458838
    2.49249249    0.00465488
    2.53253253    0.00472313
    2.57257257    0.00479320
    2.61261261    0.00486517
    2.65265265    0.00493912
    2.69269269    0.00501512
    2.73273273    0.00509327
    2.77277277    0.00517365
    2.81281281    0.00525636
    2.85285285    0.00534150
    2.89289289    0.00542918
    2.93293293    0.00551952
    2.97297297    0.00561263
    3.01301301    0.00570865
    3.05305305    0.00580770
    3.09309309    0.00590994
    3.13313313    0.00601551
    3.17317317    0.00612459
    3.21321321    0.00623733
    3.25325325    0.00635393
    3.29329329    0.00647458
    3.33333333    0.00659949
    3.37337337    0.00672888
    3.41341341    0.00686298
    3.45345345    0.00700205
    3.49349349    0.00714636
    3.53353353    0.00729619
    3.57357357    0.00745184
    3.61361361    0.00761364
    3.65365365    0.00778194
    3.69369369    0.00795711
    3.73373373    0.00813953
    3.77377377    0.00832962
    3.81381381    0.00852783
    3.85385385    0.00873463
    3.89389389    0.00895052
    3.93393393    0.00917601
    3.97397397    0.00941168
    4.01401401    0.00965809
    4.05405405    0.00991587
    4.09409409    0.01018564
    4.13413413    0.01046805
    4.17417417    0.01076379
    4.21421421    0.01107353
    4.25425425    0.01139795
    4.29429429    0.01173773
    4.33433433    0.01209351
    4.37437437    0.01246589
    4.41441441    0.01285542
    4.45445445    0.01326255
    4.49449449    0.01368759
    4.53453453    0.01413073
    4.57457457    0.01459194
    4.61461461    0.01507097
    4.65465465    0.01556730
    4.69469469    0.01608012
    4.73473473    0.01660825
    4.77477477    0.01715019
    4.81481481    0.01770408
    4.85485485    0.01826771
    4.89489489    0.01883860
    4.93493493    0.01941404
    4.97497497    0.01999120
    5.01501502    0.02056726
    5.05505506    0.02113954
    5.09509510    0.02170564
    5.13513514    0.02226360
    5.17517518    0.02281203
    5.21521522    0.02335016
    5.25525526    0.02387789
    5.29529530    0.02439583
    5.33533534    0.02490512
    5.37537538    0.02540739
    5.41541542    0.02590453
    5.45545546    0.02639849
    5.49549550    0.02689112
    5.53553554    0.02738391
    5.57557558    0.02787793
    5.61561562    0.02837369
    5.65565566    0.02887112
    5.69569570    0.02936971
    5.73573574    0.02986856
    5.77577578    0.03036663
    5.81581582    0.03086291
    5.85585586    0.03135667
    5.89589590    0.03184759
    5.93593594    0.03233596
    5.97597598    0.03282264
    6.01601602    0.03330909
    6.05605606    0.03379719
    6.09609610    0.03428910
    6.13613614    0.03478705
    6.17617618    0.03529312
    6.21621622    0.03580906
    6.25625626    0.03633618
    6.29629630    0.03687534
    6.33633634    0.03742688
    6.37637638    0.03799079
    6.41641642    0.03856679
    6.45645646    0.03915445
    6.49649650    0.03975337
    6.53653654    0.04036321
    6.57657658    0.04098380
    6.61661662    0.04161510
    6.65665666    0.04225721
    6.69669670    0.04291028
    6.73673674    0.04357453
    6.77677678    0.04425017
    6.81681682    0.04493749
    6.85685686    0.04563687
    6.89689690    0.04634892
    6.93693694    0.04707455
    6.97697698    0.04781505
    7.01701702    0.04857214
    7.05705706    0.04934791
    7.09709710    0.05014474
    7.13713714    0.05096506
    7.17717718    0.05181115
    7.21721722    0.05268481
    7.25725726    0.05358706
    7.29729730    0.05451790
    7.33733734    0.05547607
    7.37737738    0.05645890
    7.41741742    0.05746235
    7.45745746    0.05848106
    7.49749750    0.05950853
    7.53753754    0.06053743
    7.57757758    0.06155986
    7.61761762    0.06256772
    7.65765766    0.06355294
    7.69769770    0.06450772
    7.73773774    0.06542468
    7.77777778    0.06629686
    7.81781782    0.06711781
    7.85785786    0.06788155
    7.89789790    0.06858263
    7.93793794    0.06921622
    7.97797798    0.06977831
    8.01801802    0.07026593
    8.05805806    0.07067745
    8.09809810    0.07101281
    8.13813814    0.07127373
    8.17817818    0.07146379
    8.21821822    0.07158836
    8.25825826    0.07165444
    8.29829830    0.07167037
    8.33833834    0.07164548
    8.37837838    0.07158968
    8.41841842    0.07151316
    8.45845846    0.07142608
    8.49849850    0.07133837
    8.53853854    0.07125960
    8.57857858    0.07119893
    8.61861862    0.07116508
    8.65865866    0.07116639
    8.69869870    0.07121078
    8.73873874    0.07130576
    8.77877878    0.07145831
    8.81881882    0.07167469
    8.85885886    0.07196028
    8.89889890    0.07231915
    8.93893894    0.07275380
    8.97897898    0.07326470
    9.01901902    0.07384995
    9.05905906    0.07450499
    9.09909910    0.07522232
    9.13913914    0.07599145
    9.17917918    0.07679892
    9.21921922    0.07762851
    9.25925926    0.07846168
    9.29929930    0.07927804
    9.33933934    0.08005609
    9.37937938    0.08077400
    9.41941942    0.08141041
    9.45945946    0.08194527
    9.49949950    0.08236060
    9.53953954    0.08264116
    9.57957958    0.08277497
    9.61961962    0.08275376
    9.65965966    0.08257319
    9.69969970    0.08223303
    9.73973974    0.08173707
    9.77977978    0.08109304
    9.81981982    0.08031220
    9.85985986    0.07940897
    9.89989990    0.07840028
    9.93993994    0.07730492
    9.97997998    0.07614277
   10.02002002    0.07493409
   10.06006006    0.07369877
   10.10010010    0.07245573
   10.14014014    0.07122240
   10.18018018    0.07001436
   10.22022022    0.06884512
   10.26026026    0.06772604
   10.30030030    0.06666634
   10.34034034    0.06567323
   10.38038038    0.06475199
   10.42042042    0.06390620
   10.46046046    0.06313780
   10.50050050    0.06244724
   10.54054054    0.06183357
   10.58058058    0.06129446
   10.62062062    0.06082628
   10.66066066    0.06042421
   10.70070070    0.06008234
   10.74074074    0.05979393
   10.78078078    0.05955170
   10.82082082    0.05934818
   10.86086086    0.05917618
   10.90090090    0.05902927
   10.94094094    0.05890221
   10.98098098    0.05879136
   11.02102102    0.05869500
   11.06106106    0.05861342
   11.10110110    0.05854889
   11.14114114    0.05850552
   11.18118118    0.05848885
   11.22122122    0.05850547
   11.26126126    0.05856248
   11.30130130    0.05866703
   11.34134134    0.05882584
   11.38138138    0.05904482
   11.42142142    0.05932874
   11.46146146    0.05968109
   11.50150150    0.06010392
   11.54154154    0.06059790
   11.58158158    0.06116243
   11.62162162    0.06179579
   11.66166166    0.06249547
   11.70170170    0.06325848
   11.74174174    0.06408166
   11.78178178    0.06496204
   11.82182182    0.06589711
   11.86186186    0.06688496
   11.90190190    0.06792440
   11.94194194    0.06901478
   11.98198198    0.07015579
   12.02202202    0.07134710
   12.06206206    0.07258787
   12.10210210    0.07387628
   12.14214214    0.07520911
   12.18218218    0.07658131
   12.22222222    0.07798580
   12.26226226    0.07941342
   12.30230230    0.08085303
   12.34234234    0.08229184
   12.38238238    0.08371587
   12.42242242    0.08511055
   12.46246246    0.08646133
   12.50250250    0.08775430
   12.54254254    0.08897671
   12.58258258    0.09011733
   12.62262262    0.09116667
   12.66266266    0.09211697
   12.70270270    0.09296206
   12.74274274    0.09369717
   12.78278278    0.09431861
   12.82282282    0.09482355
   12.86286286    0.09520988
   12.90290290    0.09547610
   12.94294294    0.09562137
   12.98298298    0.09564551
   13.02302302    0.09554909
   13.06306306    0.09533345
   13.10310310    0.09500058
   13.14314314    0.09455309
   13.18318318    0.09399410
   13.22322322    0.09332714
   13.26326326    0.09255624
   13.30330330    0.09168602
   13.34334334    0.09072200
   13.38338338    0.08967089
   13.42342342    0.08854092
   13.46346346    0.08734211
   13.50350350    0.08608634
   13.54354354    0.08478735
   13.58358358    0.08346040
   13.62362362    0.08212188
   13.66366366    0.08078872
   13.70370370    0.07947778
   13.74374374    0.07820525
   13.78378378    0.07698608
   13.82382382    0.07583361
   13.86386386    0.07475919
   13.90390390    0.07377210
   13.94394394    0.07287951
   13.98398398    0.07208659
   14.02402402    0.07139671
   14.06406406    0.07081175
   14.10410410    0.07033236
   14.14414414    0.06995832
   14.18418418    0.06968880
   14.22422422    0.06952258
   14.26426426    0.06945819
   14.30430430    0.06949389
   14.34434434    0.06962761
   14.38438438    0.06985669
   14.42442442    0.07017762
   14.46446446    0.07058568
   14.50450450    0.07107456
   14.54454454    0.07163609
   14.58458458    0.07225993
   14.62462462    0.07293349
   14.66466466    0.07364191
   14.70470470    0.07436832
   14.74474474    0.07509421
   14.78478478    0.07579999
   14.82482482    0.07646578
   14.86486486    0.07707222
   14.90490490    0.07760139
   14.94494494    0.07803765
   14.98498498    0.07836840
   15.02502503    0.07858465
   15.06506507    0.07868126
   15.10510511    0.07865705
   15.14514515    0.07851452
   15.18518519    0.07825938
   15.22522523    0.07789991
   15.26526527    0.07744620
   15.30530531    0.07690930
   15.34534535    0.07630046
   15.38538539    0.07563037
   15.42542543    0.07490855
   15.46546547    0.07414286
   15.50550551    0.07333914
   15.54554555    0.07250113
   15.58558559    0.07163041
   15.62562563    0.07072666
   15.66566567    0.06978790
   15.70570571    0.06881100
   15.74574575    0.06779215
   15.78578579    0.06672740
   15.82582583    0.06561316
   15.86586587    0.06444670
   15.90590591    0.06322653
   15.94594595    0.06195268
   15.98598599    0.06062691
   16.02602603    0.05925278
   16.06606607    0.05783560
   16.10610611    0.05638230
   16.14614615    0.05490116
   16.18618619    0.05340152
   16.22622623    0.05189338
   16.26626627    0.05038702
   16.30630631    0.04889256
   16.34634635    0.04741968
   16.38638639    0.04597726
   16.42642643    0.04457322
   16.46646647    0.04321436
   16.50650651    0.04190631
   16.54654655    0.04065352
   16.58658659    0.03945934
   16.62662663    0.03832614
   16.66666667    0.03725536
   16.70670671    0.03624770
   16.74674675    0.03530321
   16.78678679    0.03442143
   16.82682683    0.03360149
   16.86686687    0.03284220
   16.90690691    0.03214214
   16.94694695    0.03149971
   16.98698699    0.03091317
   17.02702703    0.03038069
   17.06706707    0.02990033
   17.10710711    0.02947008
   17.14714715    0.02908782
   17.18718719    0.02875132
   17.22722723    0.02845819
   17.26726727    0.02820586
   17.30730731    0.02799155
   17.34734735    0.02781218
