# final state angular momentum:   1
# broadening parameter (in eV):   0.800000000000    
# absorbing atom type:   1
# Energy (eV)   sigmatot   sigmaup    sigmadown 
  -10.00000000    0.00001462    0.00000737    0.00000725
   -9.89966555    0.00001473    0.00000742    0.00000731
   -9.79933110    0.00001484    0.00000748    0.00000736
   -9.69899666    0.00001495    0.00000753    0.00000742
   -9.59866221    0.00001507    0.00000759    0.00000747
   -9.49832776    0.00001518    0.00000765    0.00000753
   -9.39799331    0.00001530    0.00000771    0.00000759
   -9.29765886    0.00001541    0.00000777    0.00000765
   -9.19732441    0.00001553    0.00000783    0.00000771
   -9.09698997    0.00001566    0.00000789    0.00000777
   -8.99665552    0.00001578    0.00000795    0.00000783
   -8.89632107    0.00001590    0.00000801    0.00000789
   -8.79598662    0.00001603    0.00000807    0.00000796
   -8.69565217    0.00001616    0.00000814    0.00000802
   -8.59531773    0.00001629    0.00000820    0.00000809
   -8.49498328    0.00001642    0.00000827    0.00000815
   -8.39464883    0.00001655    0.00000834    0.00000822
   -8.29431438    0.00001669    0.00000840    0.00000829
   -8.19397993    0.00001683    0.00000847    0.00000836
   -8.09364548    0.00001697    0.00000854    0.00000843
   -7.99331104    0.00001711    0.00000861    0.00000850
   -7.89297659    0.00001726    0.00000869    0.00000857
   -7.79264214    0.00001740    0.00000876    0.00000864
   -7.69230769    0.00001755    0.00000883    0.00000872
   -7.59197324    0.00001770    0.00000891    0.00000879
   -7.49163880    0.00001786    0.00000898    0.00000887
   -7.39130435    0.00001801    0.00000906    0.00000895
   -7.29096990    0.00001817    0.00000914    0.00000903
   -7.19063545    0.00001833    0.00000922    0.00000911
   -7.09030100    0.00001850    0.00000930    0.00000919
   -6.98996656    0.00001866    0.00000938    0.00000928
   -6.88963211    0.00001883    0.00000947    0.00000936
   -6.78929766    0.00001900    0.00000955    0.00000945
   -6.68896321    0.00001918    0.00000964    0.00000954
   -6.58862876    0.00001936    0.00000973    0.00000963
   -6.48829431    0.00001954    0.00000982    0.00000972
   -6.38795987    0.00001972    0.00000991    0.00000981
   -6.28762542    0.00001991    0.00001000    0.00000991
   -6.18729097    0.00002010    0.00001010    0.00001001
   -6.08695652    0.00002030    0.00001019    0.00001010
   -5.98662207    0.00002049    0.00001029    0.00001021
   -5.88628763    0.00002070    0.00001039    0.00001031
   -5.78595318    0.00002090    0.00001049    0.00001041
   -5.68561873    0.00002111    0.00001059    0.00001052
   -5.58528428    0.00002132    0.00001070    0.00001063
   -5.48494983    0.00002154    0.00001080    0.00001074
   -5.38461538    0.00002176    0.00001091    0.00001085
   -5.28428094    0.00002199    0.00001102    0.00001097
   -5.18394649    0.00002222    0.00001113    0.00001109
   -5.08361204    0.00002246    0.00001125    0.00001121
   -4.98327759    0.00002270    0.00001136    0.00001133
   -4.88294314    0.00002294    0.00001148    0.00001146
   -4.78260870    0.00002319    0.00001160    0.00001159
   -4.68227425    0.00002345    0.00001173    0.00001172
   -4.58193980    0.00002371    0.00001185    0.00001185
   -4.48160535    0.00002397    0.00001198    0.00001199
   -4.38127090    0.00002425    0.00001211    0.00001213
   -4.28093645    0.00002453    0.00001225    0.00001228
   -4.18060201    0.00002481    0.00001238    0.00001243
   -4.08026756    0.00002510    0.00001252    0.00001258
   -3.97993311    0.00002540    0.00001266    0.00001274
   -3.87959866    0.00002571    0.00001281    0.00001290
   -3.77926421    0.00002602    0.00001296    0.00001306
   -3.67892977    0.00002634    0.00001311    0.00001323
   -3.57859532    0.00002667    0.00001326    0.00001341
   -3.47826087    0.00002701    0.00001342    0.00001359
   -3.37792642    0.00002736    0.00001358    0.00001378
   -3.27759197    0.00002771    0.00001375    0.00001397
   -3.17725753    0.00002808    0.00001391    0.00001417
   -3.07692308    0.00002846    0.00001409    0.00001437
   -2.97658863    0.00002885    0.00001426    0.00001458
   -2.87625418    0.00002924    0.00001444    0.00001480
   -2.77591973    0.00002966    0.00001463    0.00001503
   -2.67558528    0.00003008    0.00001482    0.00001526
   -2.57525084    0.00003052    0.00001501    0.00001551
   -2.47491639    0.00003097    0.00001521    0.00001576
   -2.37458194    0.00003144    0.00001542    0.00001603
   -2.27424749    0.00003193    0.00001563    0.00001630
   -2.17391304    0.00003243    0.00001584    0.00001659
   -2.07357860    0.00003296    0.00001606    0.00001690
   -1.97324415    0.00003350    0.00001629    0.00001722
   -1.87290970    0.00003407    0.00001652    0.00001755
   -1.77257525    0.00003467    0.00001676    0.00001791
   -1.67224080    0.00003529    0.00001700    0.00001829
   -1.57190635    0.00003594    0.00001725    0.00001869
   -1.47157191    0.00003663    0.00001751    0.00001911
   -1.37123746    0.00003735    0.00001778    0.00001957
   -1.27090301    0.00003811    0.00001805    0.00002006
   -1.17056856    0.00003893    0.00001834    0.00002059
   -1.07023411    0.00003979    0.00001863    0.00002116
   -0.96989967    0.00004072    0.00001893    0.00002179
   -0.86956522    0.00004171    0.00001924    0.00002247
   -0.76923077    0.00004278    0.00001956    0.00002322
   -0.66889632    0.00004394    0.00001989    0.00002405
   -0.56856187    0.00004520    0.00002023    0.00002497
   -0.46822742    0.00004658    0.00002058    0.00002600
   -0.36789298    0.00004808    0.00002094    0.00002714
   -0.26755853    0.00004972    0.00002132    0.00002840
   -0.16722408    0.00005150    0.00002171    0.00002978
   -0.06688963    0.00005339    0.00002211    0.00003128
    0.03344482    0.00005542    0.00002253    0.00003289
    0.13377926    0.00005751    0.00002297    0.00003454
    0.23411371    0.00005959    0.00002342    0.00003617
    0.33444816    0.00006158    0.00002389    0.00003769
    0.43478261    0.00006342    0.00002438    0.00003904
    0.53511706    0.00006505    0.00002489    0.00004016
    0.63545151    0.00006648    0.00002542    0.00004106
    0.73578595    0.00006770    0.00002597    0.00004173
    0.83612040    0.00006874    0.00002655    0.00004219
    0.93645485    0.00006960    0.00002716    0.00004245
    1.03678930    0.00007028    0.00002779    0.00004250
    1.13712375    0.00007080    0.00002845    0.00004235
    1.23745819    0.00007119    0.00002914    0.00004204
    1.33779264    0.00007150    0.00002987    0.00004163
    1.43812709    0.00007182    0.00003064    0.00004118
    1.53846154    0.00007219    0.00003144    0.00004075
    1.63879599    0.00007269    0.00003229    0.00004040
    1.73913043    0.00007336    0.00003319    0.00004017
    1.83946488    0.00007422    0.00003414    0.00004008
    1.93979933    0.00007529    0.00003515    0.00004014
    2.04013378    0.00007658    0.00003622    0.00004036
    2.14046823    0.00007810    0.00003735    0.00004075
    2.24080268    0.00007984    0.00003856    0.00004128
    2.34113712    0.00008182    0.00003986    0.00004196
    2.44147157    0.00008403    0.00004124    0.00004279
    2.54180602    0.00008650    0.00004273    0.00004377
    2.64214047    0.00008922    0.00004433    0.00004489
    2.74247492    0.00009221    0.00004605    0.00004616
    2.84280936    0.00009551    0.00004792    0.00004760
    2.94314381    0.00009914    0.00004994    0.00004920
    3.04347826    0.00010312    0.00005214    0.00005098
    3.14381271    0.00010751    0.00005455    0.00005296
    3.24414716    0.00011235    0.00005719    0.00005516
    3.34448161    0.00011769    0.00006009    0.00005760
    3.44481605    0.00012361    0.00006330    0.00006031
    3.54515050    0.00013020    0.00006686    0.00006334
    3.64548495    0.00013753    0.00007082    0.00006671
    3.74581940    0.00014575    0.00007525    0.00007049
    3.84615385    0.00015496    0.00008023    0.00007474
    3.94648829    0.00016534    0.00008582    0.00007951
    4.04682274    0.00017704    0.00009213    0.00008491
    4.14715719    0.00019027    0.00009926    0.00009101
    4.24749164    0.00020521    0.00010730    0.00009791
    4.34782609    0.00022203    0.00011633    0.00010570
    4.44816054    0.00024086    0.00012639    0.00011447
    4.54849498    0.00026168    0.00013745    0.00012423
    4.64882943    0.00028433    0.00014938    0.00013495
    4.74916388    0.00030834    0.00016189    0.00014645
    4.84949833    0.00033293    0.00017456    0.00015837
    4.94983278    0.00035699    0.00018678    0.00017021
    5.05016722    0.00037928    0.00019790    0.00018138
    5.15050167    0.00039877    0.00020739    0.00019138
    5.25083612    0.00041510    0.00021505    0.00020006
    5.35117057    0.00042887    0.00022117    0.00020770
    5.45150502    0.00044155    0.00022653    0.00021502
    5.55183946    0.00045513    0.00023215    0.00022298
    5.65217391    0.00047162    0.00023907    0.00023255
    5.75250836    0.00049275    0.00024821    0.00024455
    5.85284281    0.00051978    0.00026018    0.00025959
    5.95317726    0.00055341    0.00027536    0.00027805
    6.05351171    0.00059375    0.00029377    0.00029998
    6.15384615    0.00064010    0.00031505    0.00032505
    6.25418060    0.00069076    0.00033834    0.00035242
    6.35451505    0.00074288    0.00036226    0.00038062
    6.45484950    0.00079260    0.00038499    0.00040762
    6.55518395    0.00083565    0.00040462    0.00043103
    6.65551839    0.00086827    0.00041969    0.00044857
    6.75585284    0.00088810    0.00042962    0.00045848
    6.85618729    0.00089456    0.00043479    0.00045977
    6.95652174    0.00088840    0.00043611    0.00045228
    7.05685619    0.00087101    0.00043436    0.00043665
    7.15719064    0.00084392    0.00042965    0.00041426
    7.25752508    0.00080855    0.00042141    0.00038714
    7.35785953    0.00076640    0.00040882    0.00035759
    7.45819398    0.00071926    0.00039152    0.00032774
    7.55852843    0.00066927    0.00037004    0.00029923
    7.65886288    0.00061884    0.00034573    0.00027311
    7.75919732    0.00057017    0.00032030    0.00024987
    7.85953177    0.00052497    0.00029534    0.00022963
    7.95986622    0.00048429    0.00027203    0.00021226
    8.06020067    0.00044856    0.00025104    0.00019752
    8.16053512    0.00041776    0.00023263    0.00018513
    8.26086957    0.00039162    0.00021682    0.00017480
    8.36120401    0.00036973    0.00020346    0.00016627
    8.46153846    0.00035164    0.00019231    0.00015932
    8.56187291    0.00033690    0.00018315    0.00015375
    8.66220736    0.00032515    0.00017575    0.00014940
    8.76254181    0.00031605    0.00016991    0.00014613
    8.86287625    0.00030931    0.00016546    0.00014385
    8.96321070    0.00030473    0.00016225    0.00014248
    9.06354515    0.00030213    0.00016017    0.00014196
    9.16387960    0.00030140    0.00015915    0.00014225
    9.26421405    0.00030245    0.00015911    0.00014333
    9.36454849    0.00030523    0.00016003    0.00014520
    9.46488294    0.00030976    0.00016189    0.00014787
    9.56521739    0.00031604    0.00016469    0.00015136
    9.66555184    0.00032413    0.00016843    0.00015569
    9.76588629    0.00033408    0.00017316    0.00016091
    9.86622074    0.00034593    0.00017890    0.00016704
    9.96655518    0.00035972    0.00018566    0.00017405
   10.06688963    0.00037535    0.00019345    0.00018190
   10.16722408    0.00039264    0.00020220    0.00019044
   10.26755853    0.00041120    0.00021176    0.00019943
   10.36789298    0.00043048    0.00022192    0.00020856
   10.46822742    0.00044985    0.00023238    0.00021747
   10.56856187    0.00046880    0.00024284    0.00022596
   10.66889632    0.00048716    0.00025315    0.00023400
   10.76923077    0.00050528    0.00026340    0.00024187
   10.86956522    0.00052397    0.00027393    0.00025004
   10.96989967    0.00054436    0.00028528    0.00025908
   11.07023411    0.00056761    0.00029806    0.00026954
   11.17056856    0.00059481    0.00031290    0.00028191
   11.27090301    0.00062694    0.00033033    0.00029661
   11.37123746    0.00066484    0.00035083    0.00031401
   11.47157191    0.00070930    0.00037485    0.00033445
   11.57190635    0.00076107    0.00040280    0.00035827
   11.67224080    0.00082081    0.00043503    0.00038578
   11.77257525    0.00088908    0.00047181    0.00041727
   11.87290970    0.00096620    0.00051325    0.00045295
   11.97324415    0.00105220    0.00055928    0.00049291
   12.07357860    0.00114684    0.00060966    0.00053718
   12.17391304    0.00124989    0.00066410    0.00058578
   12.27424749    0.00136156    0.00072260    0.00063895
   12.37458194    0.00148309    0.00078573    0.00069736
   12.47491639    0.00161694    0.00085480    0.00076214
   12.57525084    0.00176629    0.00093156    0.00083474
   12.67558528    0.00193403    0.00101763    0.00091640
   12.77591973    0.00212128    0.00111366    0.00100762
   12.87625418    0.00232601    0.00121854    0.00110747
   12.97658863    0.00254189    0.00132875    0.00121314
   13.07692308    0.00275784    0.00143812    0.00131972
   13.17725753    0.00295911    0.00153854    0.00142057
   13.27759197    0.00313022    0.00162172    0.00150850
   13.37792642    0.00325932    0.00168183    0.00157749
   13.47826087    0.00334206    0.00171754    0.00162452
   13.57859532    0.00338254    0.00173221    0.00165032
   13.67892977    0.00339015    0.00173167    0.00165848
   13.77926421    0.00337394    0.00172090    0.00165304
   13.87959866    0.00333753    0.00170155    0.00163598
   13.97993311    0.00327761    0.00167138    0.00160622
   14.08026756    0.00318668    0.00162598    0.00156069
   14.18060201    0.00305858    0.00156176    0.00149682
   14.28093645    0.00289355    0.00147855    0.00141500
   14.38127090    0.00269964    0.00138036    0.00131928
   14.48160535    0.00249017    0.00127400    0.00121617
   14.58193980    0.00227936    0.00116678    0.00111258
   14.68227425    0.00207889    0.00106475    0.00101413
   14.78260870    0.00189647    0.00097193    0.00092454
   14.88294314    0.00173608    0.00089037    0.00084571
   14.98327759    0.00159894    0.00082073    0.00077821
   15.08361204    0.00148452    0.00076271    0.00072181
   15.18394649    0.00139135    0.00071551    0.00067584
   15.28428094    0.00131748    0.00067802    0.00063946
   15.38461538    0.00126076    0.00064897    0.00061179
   15.48494983    0.00121885    0.00062691    0.00059194
   15.58528428    0.00118933    0.00061035    0.00057898
   15.68561873    0.00116980    0.00059789    0.00057191
   15.78595318    0.00115812    0.00058844    0.00056968
   15.88628763    0.00115277    0.00058155    0.00057123
   15.98662207    0.00115317    0.00057743    0.00057574
   16.08695652    0.00115980    0.00057688    0.00058291
   16.18729097    0.00117400    0.00058094    0.00059306
   16.28762542    0.00119765    0.00059056    0.00060708
   16.38795987    0.00123256    0.00060643    0.00062612
   16.48829431    0.00127993    0.00062876    0.00065118
   16.58862876    0.00133983    0.00065714    0.00068269
   16.68896321    0.00141060    0.00069041    0.00072019
   16.78929766    0.00148844    0.00072649    0.00076195
   16.88963211    0.00156691    0.00076226    0.00080465
   16.98996656    0.00163704    0.00079360    0.00084344
   17.09030100    0.00168819    0.00081580    0.00087239
   17.19063545    0.00171027    0.00082441    0.00088586
   17.29096990    0.00169674    0.00081654    0.00088020
   17.39130435    0.00164715    0.00079205    0.00085510
   17.49163880    0.00156741    0.00075367    0.00081374
   17.59197324    0.00146760    0.00070607    0.00076153
   17.69230769    0.00135867    0.00065435    0.00070432
   17.79264214    0.00124984    0.00060279    0.00064705
   17.89297659    0.00114746    0.00055435    0.00059311
   17.99331104    0.00105514    0.00051072    0.00054441
   18.09364548    0.00097437    0.00047260    0.00050177
   18.19397993    0.00090533    0.00044006    0.00046527
   18.29431438    0.00084747    0.00041284    0.00043463
   18.39464883    0.00079990    0.00039053    0.00040937
   18.49498328    0.00076170    0.00037269    0.00038901
   18.59531773    0.00073199    0.00035892    0.00037307
   18.69565217    0.00071002    0.00034887    0.00036116
   18.79598662    0.00069523    0.00034227    0.00035296
   18.89632107    0.00068719    0.00033894    0.00034825
   18.99665552    0.00068569    0.00033878    0.00034691
   19.09698997    0.00069066    0.00034178    0.00034888
   19.19732441    0.00070222    0.00034801    0.00035421
   19.29765886    0.00072064    0.00035760    0.00036304
   19.39799331    0.00074641    0.00037082    0.00037559
   19.49832776    0.00078018    0.00038800    0.00039219
   19.59866221    0.00082284    0.00040957    0.00041327
   19.69899666    0.00087545    0.00043608    0.00043936
   19.79933110    0.00093927    0.00046818    0.00047109
   19.89966555    0.00101571    0.00050655    0.00050916
   20.00000000    0.00110619    0.00055193    0.00055426
