#       Energy(Ry)            Total                 X                  Y                   Z
      0.40000000E+00      0.96423289E-01      0.12178391E-11      0.11460452E-04      0.96411828E-01
      0.40020000E+00      0.97764920E-01      0.12308349E-11      0.11491886E-04      0.97753428E-01
      0.40040000E+00      0.99133893E-01      0.12440781E-11      0.11523432E-04      0.99122369E-01
      0.40060000E+00      0.10053094E+00      0.12575755E-11      0.11555090E-04      0.10051939E+00
      0.40080000E+00      0.10195683E+00      0.12713337E-11      0.11586862E-04      0.10194525E+00
      0.40100000E+00      0.10341235E+00      0.12853598E-11      0.11618748E-04      0.10340073E+00
      0.40120000E+00      0.10489830E+00      0.12996610E-11      0.11650748E-04      0.10488665E+00
      0.40140000E+00      0.10641553E+00      0.13142449E-11      0.11682863E-04      0.10640385E+00
      0.40160000E+00      0.10796492E+00      0.13291192E-11      0.11715094E-04      0.10795320E+00
      0.40180000E+00      0.10954735E+00      0.13442920E-11      0.11747440E-04      0.10953560E+00
      0.40200000E+00      0.11116376E+00      0.13597716E-11      0.11779903E-04      0.11115198E+00
      0.40220000E+00      0.11281512E+00      0.13755665E-11      0.11812483E-04      0.11280331E+00
      0.40240000E+00      0.11450242E+00      0.13916857E-11      0.11845180E-04      0.11449058E+00
      0.40260000E+00      0.11622670E+00      0.14081384E-11      0.11877995E-04      0.11621482E+00
      0.40280000E+00      0.11798901E+00      0.14249342E-11      0.11910930E-04      0.11797710E+00
      0.40300000E+00      0.11979048E+00      0.14420828E-11      0.11943983E-04      0.11977854E+00
      0.40320000E+00      0.12163226E+00      0.14595947E-11      0.11977156E-04      0.12162028E+00
      0.40340000E+00      0.12351552E+00      0.14774803E-11      0.12010449E-04      0.12350351E+00
      0.40360000E+00      0.12544150E+00      0.14957507E-11      0.12043864E-04      0.12542946E+00
      0.40380000E+00      0.12741149E+00      0.15144173E-11      0.12077400E-04      0.12739941E+00
      0.40400000E+00      0.12942680E+00      0.15334919E-11      0.12111057E-04      0.12941469E+00
      0.40420000E+00      0.13148882E+00      0.15529868E-11      0.12144838E-04      0.13147668E+00
      0.40440000E+00      0.13359897E+00      0.15729148E-11      0.12178742E-04      0.13358680E+00
      0.40460000E+00      0.13575874E+00      0.15932889E-11      0.12212769E-04      0.13574653E+00
      0.40480000E+00      0.13796965E+00      0.16141230E-11      0.12246921E-04      0.13795740E+00
      0.40500000E+00      0.14023331E+00      0.16354314E-11      0.12281198E-04      0.14022103E+00
      0.40520000E+00      0.14255138E+00      0.16572286E-11      0.12315600E-04      0.14253906E+00
      0.40540000E+00      0.14492557E+00      0.16795303E-11      0.12350128E-04      0.14491322E+00
      0.40560000E+00      0.14735768E+00      0.17023522E-11      0.12384784E-04      0.14734530E+00
      0.40580000E+00      0.14984957E+00      0.17257110E-11      0.12419566E-04      0.14983715E+00
      0.40600000E+00      0.15240318E+00      0.17496240E-11      0.12454477E-04      0.15239072E+00
      0.40620000E+00      0.15502051E+00      0.17741090E-11      0.12489516E-04      0.15500802E+00
      0.40640000E+00      0.15770366E+00      0.17991848E-11      0.12524684E-04      0.15769114E+00
      0.40660000E+00      0.16045481E+00      0.18248707E-11      0.12559982E-04      0.16044225E+00
      0.40680000E+00      0.16327622E+00      0.18511870E-11      0.12595410E-04      0.16326363E+00
      0.40700000E+00      0.16617026E+00      0.18781548E-11      0.12630969E-04      0.16615763E+00
      0.40720000E+00      0.16913938E+00      0.19057958E-11      0.12666661E-04      0.16912671E+00
      0.40740000E+00      0.17218614E+00      0.19341330E-11      0.12702484E-04      0.17217344E+00
      0.40760000E+00      0.17531322E+00      0.19631901E-11      0.12738440E-04      0.17530048E+00
      0.40780000E+00      0.17852339E+00      0.19929919E-11      0.12774530E-04      0.17851061E+00
      0.40800000E+00      0.18181955E+00      0.20235642E-11      0.12810754E-04      0.18180674E+00
      0.40820000E+00      0.18520473E+00      0.20549341E-11      0.12847113E-04      0.18519189E+00
      0.40840000E+00      0.18868209E+00      0.20871296E-11      0.12883607E-04      0.18866921E+00
      0.40860000E+00      0.19225491E+00      0.21201801E-11      0.12920238E-04      0.19224199E+00
      0.40880000E+00      0.19592664E+00      0.21541163E-11      0.12957005E-04      0.19591369E+00
      0.40900000E+00      0.19970087E+00      0.21889700E-11      0.12993910E-04      0.19968787E+00
      0.40920000E+00      0.20358134E+00      0.22247748E-11      0.13030953E-04      0.20356831E+00
      0.40940000E+00      0.20757197E+00      0.22615655E-11      0.13068135E-04      0.20755891E+00
      0.40960000E+00      0.21167687E+00      0.22993786E-11      0.13105457E-04      0.21166377E+00
      0.40980000E+00      0.21590031E+00      0.23382523E-11      0.13142918E-04      0.21588717E+00
      0.41000000E+00      0.22024678E+00      0.23782266E-11      0.13180520E-04      0.22023360E+00
      0.41020000E+00      0.22472096E+00      0.24193431E-11      0.13218264E-04      0.22470774E+00
      0.41040000E+00      0.22932775E+00      0.24616456E-11      0.13256151E-04      0.22931450E+00
      0.41060000E+00      0.23407230E+00      0.25051799E-11      0.13294180E-04      0.23405901E+00
      0.41080000E+00      0.23895999E+00      0.25499938E-11      0.13332352E-04      0.23894666E+00
      0.41100000E+00      0.24399645E+00      0.25961377E-11      0.13370669E-04      0.24398308E+00
      0.41120000E+00      0.24918759E+00      0.26436640E-11      0.13409131E-04      0.24917418E+00
      0.41140000E+00      0.25453960E+00      0.26926280E-11      0.13447739E-04      0.25452615E+00
      0.41160000E+00      0.26005898E+00      0.27430876E-11      0.13486493E-04      0.26004550E+00
      0.41180000E+00      0.26575255E+00      0.27951035E-11      0.13525395E-04      0.26573903E+00
      0.41200000E+00      0.27162747E+00      0.28487393E-11      0.13564444E-04      0.27161390E+00
      0.41220000E+00      0.27769124E+00      0.29040621E-11      0.13603642E-04      0.27767763E+00
      0.41240000E+00      0.28395175E+00      0.29611421E-11      0.13642990E-04      0.28393810E+00
      0.41260000E+00      0.29041729E+00      0.30200531E-11      0.13682487E-04      0.29040361E+00
      0.41280000E+00      0.29709658E+00      0.30808727E-11      0.13722136E-04      0.29708286E+00
      0.41300000E+00      0.30399878E+00      0.31436825E-11      0.13761935E-04      0.30398502E+00
      0.41320000E+00      0.31113352E+00      0.32085683E-11      0.13801888E-04      0.31111972E+00
      0.41340000E+00      0.31851095E+00      0.32756205E-11      0.13841993E-04      0.31849711E+00
      0.41360000E+00      0.32614173E+00      0.33449341E-11      0.13882253E-04      0.32612785E+00
      0.41380000E+00      0.33403711E+00      0.34166092E-11      0.13922666E-04      0.33402318E+00
      0.41400000E+00      0.34220892E+00      0.34907512E-11      0.13963236E-04      0.34219495E+00
      0.41420000E+00      0.35066964E+00      0.35674712E-11      0.14003961E-04      0.35065563E+00
      0.41440000E+00      0.35943241E+00      0.36468862E-11      0.14044844E-04      0.35941837E+00
      0.41460000E+00      0.36851111E+00      0.37291199E-11      0.14085884E-04      0.36849702E+00
      0.41480000E+00      0.37792035E+00      0.38143023E-11      0.14127083E-04      0.37790622E+00
      0.41500000E+00      0.38767557E+00      0.39025710E-11      0.14168441E-04      0.38766140E+00
      0.41520000E+00      0.39779306E+00      0.39940709E-11      0.14209959E-04      0.39777885E+00
      0.41540000E+00      0.40829002E+00      0.40889554E-11      0.14251638E-04      0.40827577E+00
      0.41560000E+00      0.41918461E+00      0.41873860E-11      0.14293479E-04      0.41917032E+00
      0.41580000E+00      0.43049604E+00      0.42895339E-11      0.14335483E-04      0.43048171E+00
      0.41600000E+00      0.44224458E+00      0.43955795E-11      0.14377650E-04      0.44223021E+00
      0.41620000E+00      0.45445169E+00      0.45057139E-11      0.14419981E-04      0.45443727E+00
      0.41640000E+00      0.46714002E+00      0.46201389E-11      0.14462477E-04      0.46712556E+00
      0.41660000E+00      0.48033358E+00      0.47390681E-11      0.14505139E-04      0.48031908E+00
      0.41680000E+00      0.49405774E+00      0.48627275E-11      0.14547968E-04      0.49404319E+00
      0.41700000E+00      0.50833933E+00      0.49913562E-11      0.14590964E-04      0.50832474E+00
      0.41720000E+00      0.52320678E+00      0.51252070E-11      0.14634129E-04      0.52319214E+00
      0.41740000E+00      0.53869015E+00      0.52645478E-11      0.14677463E-04      0.53867548E+00
      0.41760000E+00      0.55482129E+00      0.54096621E-11      0.14720967E-04      0.55480657E+00
      0.41780000E+00      0.57163390E+00      0.55608499E-11      0.14764642E-04      0.57161914E+00
      0.41800000E+00      0.58916366E+00      0.57184291E-11      0.14808489E-04      0.58914885E+00
      0.41820000E+00      0.60744833E+00      0.58827358E-11      0.14852509E-04      0.60743348E+00
      0.41840000E+00      0.62652792E+00      0.60541261E-11      0.14896702E-04      0.62651302E+00
      0.41860000E+00      0.64644473E+00      0.62329768E-11      0.14941070E-04      0.64642979E+00
      0.41880000E+00      0.66724355E+00      0.64196867E-11      0.14985614E-04      0.66722856E+00
      0.41900000E+00      0.68897176E+00      0.66146776E-11      0.15030333E-04      0.68895673E+00
      0.41920000E+00      0.71167944E+00      0.68183955E-11      0.15075230E-04      0.71166437E+00
      0.41940000E+00      0.73541955E+00      0.70313118E-11      0.15120305E-04      0.73540443E+00
      0.41960000E+00      0.76024802E+00      0.72539245E-11      0.15165559E-04      0.76023285E+00
      0.41980000E+00      0.78622386E+00      0.74867591E-11      0.15210993E-04      0.78620865E+00
      0.42000000E+00      0.81340931E+00      0.77303698E-11      0.15256608E-04      0.81339406E+00
      0.42020000E+00      0.84186995E+00      0.79853402E-11      0.15302405E-04      0.84185464E+00
      0.42040000E+00      0.87167472E+00      0.82522844E-11      0.15348385E-04      0.87165937E+00
      0.42060000E+00      0.90289605E+00      0.85318472E-11      0.15394548E-04      0.90288066E+00
      0.42080000E+00      0.93560988E+00      0.88247047E-11      0.15440896E-04      0.93559444E+00
      0.42100000E+00      0.96989563E+00      0.91315640E-11      0.15487430E-04      0.96988014E+00
      0.42120000E+00      0.10058361E+01      0.94531628E-11      0.15534151E-04      0.10058206E+01
      0.42140000E+00      0.10435176E+01      0.97902685E-11      0.15581058E-04      0.10435020E+01
      0.42160000E+00      0.10830294E+01      0.10143676E-10      0.15628155E-04      0.10830137E+01
      0.42180000E+00      0.11244635E+01      0.10514206E-10      0.15675441E-04      0.11244479E+01
      0.42200000E+00      0.11679147E+01      0.10902701E-10      0.15722918E-04      0.11678990E+01
      0.42220000E+00      0.12134793E+01      0.11310019E-10      0.15770586E-04      0.12134636E+01
      0.42240000E+00      0.12612551E+01      0.11737030E-10      0.15818447E-04      0.12612393E+01
      0.42260000E+00      0.13113399E+01      0.12184606E-10      0.15866501E-04      0.13113240E+01
      0.42280000E+00      0.13638308E+01      0.12653610E-10      0.15914750E-04      0.13638149E+01
      0.42300000E+00      0.14188224E+01      0.13144886E-10      0.15963194E-04      0.14188064E+01
      0.42320000E+00      0.14764053E+01      0.13659240E-10      0.16011836E-04      0.14763893E+01
      0.42340000E+00      0.15366640E+01      0.14197423E-10      0.16060674E-04      0.15366479E+01
      0.42360000E+00      0.15996738E+01      0.14760108E-10      0.16109712E-04      0.15996577E+01
      0.42380000E+00      0.16654986E+01      0.15347862E-10      0.16158949E-04      0.16654824E+01
      0.42400000E+00      0.17341865E+01      0.15961113E-10      0.16208388E-04      0.17341703E+01
      0.42420000E+00      0.18057660E+01      0.16600116E-10      0.16258028E-04      0.18057497E+01
      0.42440000E+00      0.18802411E+01      0.17264907E-10      0.16307871E-04      0.18802248E+01
      0.42460000E+00      0.19575859E+01      0.17955254E-10      0.16357918E-04      0.19575695E+01
      0.42480000E+00      0.20377383E+01      0.18670604E-10      0.16408170E-04      0.20377219E+01
      0.42500000E+00      0.21205932E+01      0.19410024E-10      0.16458629E-04      0.21205768E+01
      0.42520000E+00      0.22059955E+01      0.20172130E-10      0.16509294E-04      0.22059790E+01
      0.42540000E+00      0.22937322E+01      0.20955027E-10      0.16560169E-04      0.22937156E+01
      0.42560000E+00      0.23835242E+01      0.21756232E-10      0.16611252E-04      0.23835076E+01
      0.42580000E+00      0.24750194E+01      0.22572607E-10      0.16662547E-04      0.24750027E+01
      0.42600000E+00      0.25677847E+01      0.23400299E-10      0.16714053E-04      0.25677680E+01
      0.42620000E+00      0.26613005E+01      0.24234680E-10      0.16765772E-04      0.26612838E+01
      0.42640000E+00      0.27549561E+01      0.25070315E-10      0.16817705E-04      0.27549393E+01
      0.42660000E+00      0.28480480E+01      0.25900939E-10      0.16869854E-04      0.28480311E+01
      0.42680000E+00      0.29397808E+01      0.26719472E-10      0.16922219E-04      0.29397639E+01
      0.42700000E+00      0.30292735E+01      0.27518070E-10      0.16974801E-04      0.30292565E+01
      0.42720000E+00      0.31155687E+01      0.28288209E-10      0.17027602E-04      0.31155517E+01
      0.42740000E+00      0.31976487E+01      0.29020830E-10      0.17080623E-04      0.31976317E+01
      0.42760000E+00      0.32744562E+01      0.29706518E-10      0.17133865E-04      0.32744391E+01
      0.42780000E+00      0.33449206E+01      0.30335743E-10      0.17187330E-04      0.33449034E+01
      0.42800000E+00      0.34079890E+01      0.30899130E-10      0.17241018E-04      0.34079717E+01
      0.42820000E+00      0.34626610E+01      0.31387774E-10      0.17294930E-04      0.34626437E+01
      0.42840000E+00      0.35080249E+01      0.31793557E-10      0.17349069E-04      0.35080075E+01
      0.42860000E+00      0.35432934E+01      0.32109472E-10      0.17403434E-04      0.35432760E+01
      0.42880000E+00      0.35678373E+01      0.32329914E-10      0.17458028E-04      0.35678198E+01
      0.42900000E+00      0.35812125E+01      0.32450931E-10      0.17512852E-04      0.35811950E+01
      0.42920000E+00      0.35831809E+01      0.32470403E-10      0.17567906E-04      0.35831633E+01
      0.42940000E+00      0.35737208E+01      0.32388137E-10      0.17623193E-04      0.35737031E+01
      0.42960000E+00      0.35530280E+01      0.32205877E-10      0.17678713E-04      0.35530104E+01
      0.42980000E+00      0.35215065E+01      0.31927218E-10      0.17734467E-04      0.35214888E+01
      0.43000000E+00      0.34797490E+01      0.31557439E-10      0.17790458E-04      0.34797312E+01
      0.43020000E+00      0.34285109E+01      0.31103263E-10      0.17846686E-04      0.34284930E+01
      0.43040000E+00      0.33686773E+01      0.30572573E-10      0.17903153E-04      0.33686594E+01
      0.43060000E+00      0.33012282E+01      0.29974091E-10      0.17959859E-04      0.33012102E+01
      0.43080000E+00      0.32272017E+01      0.29317061E-10      0.18016807E-04      0.32271837E+01
      0.43100000E+00      0.31476596E+01      0.28610936E-10      0.18073998E-04      0.31476415E+01
      0.43120000E+00      0.30636557E+01      0.27865097E-10      0.18131432E-04      0.30636376E+01
      0.43140000E+00      0.29762091E+01      0.27088618E-10      0.18189112E-04      0.29761910E+01
      0.43160000E+00      0.28862824E+01      0.26290068E-10      0.18247038E-04      0.28862642E+01
      0.43180000E+00      0.27947655E+01      0.25477371E-10      0.18305213E-04      0.27947472E+01
      0.43200000E+00      0.27024648E+01      0.24657705E-10      0.18363637E-04      0.27024464E+01
      0.43220000E+00      0.26100969E+01      0.23837452E-10      0.18422312E-04      0.26100785E+01
      0.43240000E+00      0.25182870E+01      0.23022176E-10      0.18481239E-04      0.25182685E+01
      0.43260000E+00      0.24275697E+01      0.22216638E-10      0.18540420E-04      0.24275511E+01
      0.43280000E+00      0.23383931E+01      0.21424827E-10      0.18599856E-04      0.23383745E+01
      0.43300000E+00      0.22511246E+01      0.20650014E-10      0.18659548E-04      0.22511060E+01
      0.43320000E+00      0.21660578E+01      0.19894812E-10      0.18719499E-04      0.21660390E+01
      0.43340000E+00      0.20834195E+01      0.19161243E-10      0.18779709E-04      0.20834007E+01
      0.43360000E+00      0.20033782E+01      0.18450804E-10      0.18840179E-04      0.20033593E+01
      0.43380000E+00      0.19260510E+01      0.17764540E-10      0.18900913E-04      0.19260321E+01
      0.43400000E+00      0.18515115E+01      0.17103105E-10      0.18961910E-04      0.18514926E+01
      0.43420000E+00      0.17797960E+01      0.16466822E-10      0.19023172E-04      0.17797769E+01
      0.43440000E+00      0.17109098E+01      0.15855739E-10      0.19084701E-04      0.17108907E+01
      0.43460000E+00      0.16448330E+01      0.15269679E-10      0.19146499E-04      0.16448138E+01
      0.43480000E+00      0.15815250E+01      0.14708281E-10      0.19208566E-04      0.15815058E+01
      0.43500000E+00      0.15209291E+01      0.14171039E-10      0.19270905E-04      0.15209099E+01
      0.43520000E+00      0.14629759E+01      0.13657335E-10      0.19333517E-04      0.14629565E+01
      0.43540000E+00      0.14075863E+01      0.13166467E-10      0.19396404E-04      0.14075669E+01
      0.43560000E+00      0.13546747E+01      0.12697671E-10      0.19459566E-04      0.13546552E+01
      0.43580000E+00      0.13041506E+01      0.12250143E-10      0.19523007E-04      0.13041310E+01
      0.43600000E+00      0.12559207E+01      0.11823050E-10      0.19586726E-04      0.12559011E+01
      0.43620000E+00      0.12098903E+01      0.11415552E-10      0.19650726E-04      0.12098707E+01
      0.43640000E+00      0.11659648E+01      0.11026804E-10      0.19715009E-04      0.11659451E+01
      0.43660000E+00      0.11240501E+01      0.10655970E-10      0.19779576E-04      0.11240303E+01
      0.43680000E+00      0.10840538E+01      0.10302227E-10      0.19844429E-04      0.10840339E+01
      0.43700000E+00      0.10458856E+01      0.99647720E-11      0.19909569E-04      0.10458657E+01
      0.43720000E+00      0.10094579E+01      0.96428236E-11      0.19974998E-04      0.10094379E+01
      0.43740000E+00      0.97468585E+00      0.93356275E-11      0.20040718E-04      0.97466581E+00
      0.43760000E+00      0.94148783E+00      0.90424567E-11      0.20106731E-04      0.94146772E+00
      0.43780000E+00      0.90978542E+00      0.87626134E-11      0.20173037E-04      0.90976525E+00
      0.43800000E+00      0.87950358E+00      0.84954294E-11      0.20239639E-04      0.87948334E+00
      0.43820000E+00      0.85057061E+00      0.82402665E-11      0.20306539E-04      0.85055030E+00
      0.43840000E+00      0.82291815E+00      0.79965163E-11      0.20373738E-04      0.82289778E+00
      0.43860000E+00      0.79648118E+00      0.77635998E-11      0.20441238E-04      0.79646074E+00
      0.43880000E+00      0.77119787E+00      0.75409668E-11      0.20509041E-04      0.77117736E+00
      0.43900000E+00      0.74700953E+00      0.73280948E-11      0.20577148E-04      0.74698895E+00
      0.43920000E+00      0.72386051E+00      0.71244884E-11      0.20645562E-04      0.72383986E+00
