#        Frequency (eV)           Re(1/eps)            -Im(1/eps)               Re(eps)                Im(eps)
     0.000000000000000E+00  0.233958685172472E+00  0.190244105131977E-15  0.427425893278042E+01  0.347562461795220E-14
     0.100000000000000E-01  0.233958186697745E+00  0.537393548314951E-04  0.427426781406664E+01  0.981783958693934E-03
     0.200000000000000E-01  0.233956691275412E+00  0.107485346472798E-03  0.427429445799579E+01  0.196371396022014E-02
     0.300000000000000E-01  0.233954198911101E+00  0.161244616990964E-03  0.427433886477771E+01  0.294593615480509E-02
     0.400000000000000E-01  0.233950709614479E+00  0.215023818971504E-03  0.427440103475625E+01  0.392859690754345E-02
     0.500000000000000E-01  0.233946223399677E+00  0.268829620790185E-03  0.427448096840069E+01  0.491184290608046E-02
     0.600000000000000E-01  0.233940740285890E+00  0.322668711899342E-03  0.427457866629338E+01  0.589582126858167E-02
     0.700000000000000E-01  0.233934260298162E+00  0.376547808133759E-03  0.427469412911391E+01  0.688067965208915E-02
     0.800000000000000E-01  0.233926783468331E+00  0.430473657040918E-03  0.427482735761974E+01  0.786656636136008E-02
     0.900000000000000E-01  0.233918309836179E+00  0.484453043240380E-03  0.427497835262282E+01  0.885363045827959E-02
     0.100000000000000E+00  0.233908839450746E+00  0.538492793816985E-03  0.427514711496276E+01  0.984202187194247E-02
     0.110000000000000E+00  0.233898372371856E+00  0.592599783752458E-03  0.427533364547585E+01  0.108318915094915E-01
     0.120000000000000E+00  0.233886908671827E+00  0.646780941399961E-03  0.427553794496005E+01  0.118233913678026E-01
     0.130000000000000E+00  0.233874448437390E+00  0.701043254005936E-03  0.427576001413598E+01  0.128166746461010E-01
     0.140000000000000E+00  0.233860991771818E+00  0.755393773283538E-03  0.427599985360352E+01  0.138118958595927E-01
     0.150000000000000E+00  0.233846538797280E+00  0.809839621041729E-03  0.427625746379379E+01  0.148092109541880E-01
     0.160000000000000E+00  0.233831089657412E+00  0.864387994873960E-03  0.427653284491670E+01  0.158087774223953E-01
     0.170000000000000E+00  0.233814644520137E+00  0.919046173910168E-03  0.427682599690348E+01  0.168107544204536E-01
     0.180000000000000E+00  0.233797203580732E+00  0.973821524635552E-03  0.427713691934420E+01  0.178153028867708E-01
     0.190000000000000E+00  0.233778767065150E+00  0.102872150677937E-02  0.427746561141987E+01  0.188225856617273E-01
     0.200000000000000E+00  0.233759335233614E+00  0.108375367927661E-02  0.427781207182924E+01  0.198327676088985E-01
     0.210000000000000E+00  0.233738908384513E+00  0.113892570630523E-02  0.427817629870927E+01  0.208460157377400E-01
     0.220000000000000E+00  0.233717486858578E+00  0.119424536340093E-02  0.427855828954994E+01  0.218624993277780E-01
     0.230000000000000E+00  0.233695071043390E+00  0.124972054365148E-02  0.427895804110218E+01  0.228823900543253E-01
     0.240000000000000E+00  0.233671661378217E+00  0.130535926397163E-02  0.427937554927935E+01  0.239058621157483E-01
     0.250000000000000E+00  0.233647258359196E+00  0.136116967145935E-02  0.427981080905118E+01  0.249330923622845E-01
     0.260000000000000E+00  0.233621862544904E+00  0.141716004983358E-02  0.428026381433030E+01  0.259642604264029E-01
     0.270000000000000E+00  0.233595474562302E+00  0.147333882595273E-02  0.428073455785074E+01  0.269995488546888E-01
     0.280000000000000E+00  0.233568095113103E+00  0.152971457641259E-02  0.428122303103793E+01  0.280391432412064E-01
     0.290000000000000E+00  0.233539724980575E+00  0.158629603422130E-02  0.428172922386979E+01  0.290832323622846E-01
     0.300000000000000E+00  0.233510365036810E+00  0.164309209554826E-02  0.428225312472828E+01  0.301320083126449E-01
     0.310000000000000E+00  0.233480016250474E+00  0.170011182654243E-02  0.428279472024104E+01  0.311856666427677E-01
     0.320000000000000E+00  0.233448679695086E+00  0.175736447021453E-02  0.428335399511239E+01  0.322444064973670E-01
     0.330000000000000E+00  0.233416356557832E+00  0.181485945337626E-02  0.428393093194314E+01  0.333084307548160E-01
     0.340000000000000E+00  0.233383048148970E+00  0.187260639362799E-02  0.428452551103858E+01  0.343779461673316E-01
     0.350000000000000E+00  0.233348755911838E+00  0.193061510638478E-02  0.428513771020386E+01  0.354531635016912E-01
     0.360000000000000E+00  0.233313481433516E+00  0.198889561192886E-02  0.428576750452628E+01  0.365342976802160E-01
     0.370000000000000E+00  0.233277226456174E+00  0.204745814247437E-02  0.428641486614332E+01  0.376215679217067E-01
     0.380000000000000E+00  0.233239992889142E+00  0.210631314922800E-02  0.428707976399606E+01  0.387151978819776E-01
     0.390000000000000E+00  0.233201782821756E+00  0.216547130942672E-02  0.428776216356671E+01  0.398154157935662E-01
     0.400000000000000E+00  0.233162598537002E+00  0.222494353333076E-02  0.428846202659976E+01  0.409224546041567E-01
     0.410000000000000E+00  0.233122442526032E+00  0.228474097114717E-02  0.428917931080550E+01  0.420365521131662E-01
     0.420000000000000E+00  0.233081317503578E+00  0.234487501985544E-02  0.428991396954497E+01  0.431579511058860E-01
     0.430000000000000E+00  0.233039226424328E+00  0.240535732990345E-02  0.429066595149547E+01  0.442868994844870E-01
     0.440000000000000E+00  0.232996172500308E+00  0.246619981173732E-02  0.429143520029552E+01  0.454236503951057E-01
     0.450000000000000E+00  0.232952159219337E+00  0.252741464212445E-02  0.429222165416784E+01  0.465684623501310E-01
     0.460000000000000E+00  0.232907190364601E+00  0.258901427022385E-02  0.429302524551971E+01  0.477215993447108E-01
     0.470000000000000E+00  0.232861270035414E+00  0.265101142335247E-02  0.429384590051894E+01  0.488833309663721E-01
     0.480000000000000E+00  0.232814402669230E+00  0.271341911238992E-02  0.429468353864458E+01  0.500539324965256E-01
     0.490000000000000E+00  0.232766593064960E+00  0.277625063675755E-02  0.429553807221104E+01  0.512336850024869E-01
     0.500000000000000E+00  0.232717846407673E+00  0.283951958890040E-02  0.429640940586402E+01  0.524228754184817E-01
     0.510000000000000E+00  0.232668168294746E+00  0.290323985819263E-02  0.429729743604716E+01  0.536217966139498E-01
     0.520000000000000E+00  0.232617564763533E+00  0.296742563417832E-02  0.429820205043788E+01  0.548307474472655E-01
     0.530000000000000E+00  0.232566042320611E+00  0.303209140904988E-02  0.429912312735113E+01  0.560500328028060E-01
     0.540000000000000E+00  0.232513607972711E+00  0.309725197925629E-02  0.430006053510935E+01  0.572799636090649E-01
     0.550000000000000E+00  0.232460269259358E+00  0.316292244612185E-02  0.430101413137763E+01  0.585208568352975E-01
     0.560000000000000E+00  0.232406034287346E+00  0.322911821534398E-02  0.430198376246220E+01  0.597730354638949E-01
     0.570000000000000E+00  0.232350911767073E+00  0.329585499522547E-02  0.430296926257120E+01  0.610368284354490E-01
     0.580000000000000E+00  0.232294911050830E+00  0.336314879348220E-02  0.430397045303640E+01  0.623125705631366E-01
     0.590000000000000E+00  0.232238042173132E+00  0.343101591245202E-02  0.430498714149403E+01  0.636006024127437E-01
     0.600000000000000E+00  0.232180315893100E+00  0.349947294251368E-02  0.430601912102449E+01  0.649012701443204E-01
     0.610000000000000E+00  0.232121743739017E+00  0.356853675350700E-02  0.430706616924896E+01  0.662149253110577E-01
     0.620000000000000E+00  0.232062338055076E+00  0.363822448392646E-02  0.430812804738233E+01  0.675419246106051E-01
     0.630000000000000E+00  0.232002112050370E+00  0.370855352763959E-02  0.430920449924184E+01  0.688826295836226E-01
     0.640000000000000E+00  0.231941079850177E+00  0.377954151786031E-02  0.431029525021070E+01  0.702374062539101E-01
     0.650000000000000E+00  0.231879256549549E+00  0.385120630808397E-02  0.431140000615629E+01  0.716066247039839E-01
     0.660000000000000E+00  0.231816658269229E+00  0.392356594966664E-02  0.431251845230336E+01  0.729906585794854E-01
     0.670000000000000E+00  0.231753302213880E+00  0.399663866570561E-02  0.431365025206245E+01  0.743898845152724E-01
     0.680000000000000E+00  0.231689206732609E+00  0.407044282085144E-02  0.431479504581428E+01  0.758046814755147E-01
     0.690000000000001E+00  0.231624391381735E+00  0.414499688665373E-02  0.431595244965183E+01  0.772354299995499E-01
     0.700000000000001E+00  0.231558876989717E+00  0.422031940201467E-02  0.431712205408202E+01  0.786825113446928E-01
     0.710000000000001E+00  0.231492685724143E+00  0.429642892829453E-02  0.431830342268964E+01  0.801463065165952E-01
     0.720000000000001E+00  0.231425841160633E+00  0.437334399858388E-02  0.431949609076714E+01  0.816271951771844E-01
     0.730000000000001E+00  0.231358368353448E+00  0.445108306062744E-02  0.432069956391496E+01  0.831255544196340E-01
     0.740000000000001E+00  0.231290293907604E+00  0.452966441285491E-02  0.432191331661757E+01  0.846417573992400E-01
     0.750000000000001E+00  0.231221646052164E+00  0.460910613294636E-02  0.432313679080242E+01  0.861761718085781E-01
     0.760000000000001E+00  0.231152454714367E+00  0.468942599833190E-02  0.432436939438943E+01  0.877291581847958E-01
     0.770000000000001E+00  0.231082751594176E+00  0.477064139800218E-02  0.432561049984110E+01  0.893010680365076E-01
     0.780000000000001E+00  0.231012570238723E+00  0.485276923498425E-02  0.432685944272419E+01  0.908922417773844E-01
     0.790000000000001E+00  0.230941946116078E+00  0.493582581882134E-02  0.432811552029629E+01  0.925030064533283E-01
     0.800000000000001E+00  0.230870916687636E+00  0.501982674738373E-02  0.432937799013261E+01  0.941336732500009E-01
     0.810000000000001E+00  0.230799521478347E+00  0.510478677733468E-02  0.433064606881006E+01  0.957845347675558E-01
     0.820000000000001E+00  0.230727802143845E+00  0.519071968258025E-02  0.433191893066945E+01  0.974558620497299E-01
     0.830000000000001E+00  0.230655802533472E+00  0.527763810004791E-02  0.433319570667740E+01  0.991479013549030E-01
     0.840000000000001E+00  0.230583568747993E+00  0.536555336216791E-02  0.433447548341422E+01  0.100860870657637E+00
     0.850000000000001E+00  0.230511149190678E+00  0.545447531547569E-02  0.433575730221612E+01  0.102594955870307E+00
     0.860000000000001E+00  0.230438594610279E+00  0.554441212481585E-02  0.433704015850347E+01  0.104350306776030E+00
     0.870000000000001E+00  0.230365958134236E+00  0.563537006271156E-02  0.433832300133040E+01  0.106127032666104E+00
     0.880000000000001E+00  0.230293295290297E+00  0.572735328357057E-02  0.433960473319437E+01  0.107925197677722E+00
     0.890000000000001E+00  0.230220664014543E+00  0.582036358253305E-02  0.434088421014822E+01  0.109744815830883E+00
     0.900000000000001E+00  0.230148124643638E+00  0.591440013893241E-02  0.434216024225995E+01  0.111585845767173E+00
     0.910000000000001E+00  0.230075739888929E+00  0.600945924453833E-02  0.434343159447022E+01  0.113448185197665E+00
     0.920000000000001E+00  0.230003574789858E+00  0.610553401698923E-02  0.434469698789972E+01  0.115331665072460E+00
     0.930000000000001E+00  0.229931696643969E+00  0.620261409909787E-02  0.434595510166230E+01  0.117236043490588E+00
     0.940000000000001E+00  0.229860174910656E+00  0.630068534503593E-02  0.434720457524200E+01  0.119160999376019E+00
     0.950000000000001E+00  0.229789081085655E+00  0.639972949477015E-02  0.434844401149449E+01  0.121106125953585E+00
     0.960000000000001E+00  0.229718488543170E+00  0.649972383853845E-02  0.434967198033445E+01  0.123070924067523E+00
     0.970000000000000E+00  0.229648472342530E+00  0.660064087361806E-02  0.435088702317063E+01  0.125054795395283E+00
     0.980000000000000E+00  0.229579108996161E+00  0.670244795614988E-02  0.435208765815012E+01  0.127057035620088E+00
     0.990000000000000E+00  0.229510476195818E+00  0.680510695134085E-02  0.435327238627025E+01  0.129076827637325E+00
     0.100000000000000E+01  0.229442652494065E+00  0.690857388596574E-02  0.435443969841323E+01  0.131113234882291E+00
     0.101000000000000E+01  0.229375716938274E+00  0.701279860772402E-02  0.435558808335236E+01  0.133165194879685E+00
     0.102000000000000E+01  0.229309748654660E+00  0.711772445666837E-02  0.435671603677103E+01  0.135231513128494E+00
     0.103000000000000E+01  0.229244826380380E+00  0.722328795459444E-02  0.435782207132442E+01  0.137310857449115E+00
     0.104000000000000E+01  0.229181027942188E+00  0.732941851895407E-02  0.435890472776167E+01  0.139401752932498E+00
     0.105000000000000E+01  0.229118429680919E+00  0.743603820850295E-02  0.435996258710932E+01  0.141502577643095E+00
     0.106000000000000E+01  0.229057105821833E+00  0.754306150850018E-02  0.436099428389844E+01  0.143611559238203E+00
     0.107000000000000E+01  0.228997127791906E+00  0.765039516380903E-02  0.436199852039540E+01  0.145726772675071E+00
     0.108000000000000E+01  0.228938563486241E+00  0.775793806868147E-02  0.436297408177173E+01  0.147846139183457E+00
     0.109000000000000E+01  0.228881476487098E+00  0.786558122230385E-02  0.436391985212058E+01  0.149967426684324E+00
     0.110000000000000E+01  0.228825925240447E+00  0.797320775930756E-02  0.436483483119696E+01  0.152088251834342E+00
     0.111000000000000E+01  0.228771962196514E+00  0.808069306436669E-02  0.436571815172728E+01  0.154206083870272E+00
     0.112000000000000E+01  0.228719632922400E+00  0.818790497967901E-02  0.436656909709998E+01  0.156318250416167E+00
     0.113000000000000E+01  0.228668975196587E+00  0.829470411352480E-02  0.436738711921567E+01  0.158421945399325E+00
     0.114000000000000E+01  0.228620018096827E+00  0.840094425718667E-02  0.436817185624166E+01  0.160514239197355E+00
     0.115000000000000E+01  0.228572781094578E+00  0.850647291627373E-02  0.436892314998512E+01  0.162592091108399E+00
     0.116000000000000E+01  0.228527273170762E+00  0.861113196090713E-02  0.436964106257039E+01  0.164652364199330E+00
     0.117000000000000E+01  0.228483491968936E+00  0.871475839729129E-02  0.437032589208326E+01  0.166691842542875E+00
     0.118000000000000E+01  0.228441423003187E+00  0.881718526092600E-02  0.437097818682764E+01  0.168707250804457E+00
     0.119000000000000E+01  0.228401038938831E+00  0.891824262913849E-02  0.437159875783070E+01  0.170695276084168E+00
     0.120000000000000E+01  0.228362298964443E+00  0.901775874777421E-02  0.437218868923233E+01  0.172652591859671E+00
     0.121000000000000E+01  0.228325148273677E+00  0.911556126384762E-02  0.437274934620511E+01  0.174575883813748E+00
     0.122000000000000E+01  0.228289517674762E+00  0.921147855279841E-02  0.437328238007197E+01  0.176461877267428E+00
     0.123000000000000E+01  0.228255323344414E+00  0.930534112582465E-02  0.437378973032257E+01  0.178307365878467E+00
     0.124000000000000E+01  0.228222466741110E+00  0.939698309968452E-02  0.437427362327447E+01  0.180109241207766E+00
     0.125000000000000E+01  0.228190834690362E+00  0.948624370849421E-02  0.437473656718190E+01  0.181864522705572E+00
     0.126000000000000E+01  0.228160299651621E+00  0.957296883452872E-02  0.437518134366285E+01  0.183570387627681E+00
     0.127000000000000E+01  0.228130720173051E+00  0.965701253297894E-02  0.437561099539113E+01  0.185224200361439E+00
     0.128000000000000E+01  0.228101941536422E+00  0.973823852415187E-02  0.437602881008397E+01  0.186823540624504E+00
     0.129000000000000E+01  0.228073796590194E+00  0.981652162581660E-02  0.437643830090289E+01  0.188366229997297E+00
     0.130000000000000E+01  0.228046106764368E+00  0.989174909838144E-02  0.437684318347483E+01  0.189850356264266E+00
     0.131000000000000E+01  0.228018683256222E+00  0.996382187637890E-02  0.437724734982725E+01  0.191274295069591E+00
     0.132000000000000E+01  0.227991328371656E+00  0.100326556613569E-01  0.437765483961239E+01  0.192636728439553E+00
     0.133000000000000E+01  0.227963837002772E+00  0.100981818536990E-01  0.437806980906911E+01  0.193936659785348E+00
     0.134000000000000E+01  0.227935998218713E+00  0.101603483040683E-01  0.437849649823153E+01  0.195173425074738E+00
     0.135000000000000E+01  0.227907596943689E+00  0.102191198689890E-01  0.437893919694108E+01  0.196346699946171E+00
     0.136000000000000E+01  0.227878415693857E+00  0.102744787594256E-01  0.437940221024936E+01  0.197456502631819E+00
     0.137000000000000E+01  0.227848236343165E+00  0.103264246759270E-01  0.437988982381287E+01  0.198503192652953E+00
     0.138000000000000E+01  0.227816841887721E+00  0.103749747288137E-01  0.438040626987586E+01  0.199487465348577E+00
     0.139000000000000E+01  0.227784018178451E+00  0.104201631468074E-01  0.438095569441652E+01  0.200410342392816E+00
     0.140000000000000E+01  0.227749555593030E+00  0.104620407822613E-01  0.438154212599250E+01  0.201273158544562E+00
     0.141000000000000E+01  0.227713250620029E+00  0.105006744255732E-01  0.438216944676989E+01  0.202077544951516E+00
     0.142000000000000E+01  0.227674907330907E+00  0.105361459453033E-01  0.438284136615399E+01  0.202825409397421E+00
     0.143000000000000E+01  0.227634338718819E+00  0.105685512738497E-01  0.438356139736661E+01  0.203518913933995E+00
     0.144000000000000E+01  0.227591367886958E+00  0.105979992611628E-01  0.438433283723380E+01  0.204160450376897E+00
     0.145000000000000E+01  0.227545829073239E+00  0.106246104208523E-01  0.438515874936411E+01  0.204752614167187E+00
     0.146000000000000E+01  0.227497568502332E+00  0.106485155941284E-01  0.438604195081497E+01  0.205298177106785E+00
     0.147000000000000E+01  0.227446445060320E+00  0.106698545573421E-01  0.438698500226263E+01  0.205800059468810E+00
     0.148000000000000E+01  0.227392330791221E+00  0.106887745984848E-01  0.438799020161787E+01  0.206261301963241E+00
     0.149000000000000E+01  0.227335111218519E+00  0.107054290869528E-01  0.438905958096018E+01  0.206685038006361E+00
     0.150000000000000E+01  0.227274685498148E+00  0.107199760592558E-01  0.439019490660611E+01  0.207074466701518E+00
     0.151000000000000E+01  0.227210966412380E+00  0.107325768412698E-01  0.439139768207784E+01  0.207432826890641E+00
     0.152000000000000E+01  0.227143880216483E+00  0.107433947252021E-01  0.439266915370100E+01  0.207763372583282E+00
     0.153000000000000E+01  0.227073366351928E+00  0.107525937167717E-01  0.439401031853294E+01  0.208069350014664E+00
     0.154000000000000E+01  0.226999377041280E+00  0.107603373653166E-01  0.439542193430647E+01  0.208353976528531E+00
     0.155000000000000E+01  0.226921876780764E+00  0.107667876867252E-01  0.439690453106622E+01  0.208620421426036E+00
     0.156000000000000E+01  0.226840841746835E+00  0.107721041863360E-01  0.439845842417672E+01  0.208871788870269E+00
     0.157000000000000E+01  0.226756259133059E+00  0.107764429863413E-01  0.440008372838981E+01  0.209111102888221E+00
     0.158000000000000E+01  0.226668126433100E+00  0.107799560598151E-01  0.440178037267448E+01  0.209341294469085E+00
     0.159000000000000E+01  0.226576450684880E+00  0.107827905713183E-01  0.440354811553240E+01  0.209565190720317E+00
     0.160000000000000E+01  0.226481247689964E+00  0.107850883221391E-01  0.440538656054559E+01  0.209785506011030E+00
     0.161000000000000E+01  0.226382541220996E+00  0.107869852966120E-01  0.440729517193013E+01  0.210004835006375E+00
     0.162000000000000E+01  0.226280362228720E+00  0.107886113046490E-01  0.440927328989611E+01  0.210225647476105E+00
     0.163000000000000E+01  0.226174748058681E+00  0.107900897145755E-01  0.441132014564365E+01  0.210450284745580E+00
     0.164000000000000E+01  0.226065741686317E+00  0.107915372696009E-01  0.441343487585118E+01  0.210680957647230E+00
     0.165000000000000E+01  0.225953390977712E+00  0.107930639807392E-01  0.441561653654017E+01  0.210919745824877E+00
     0.166000000000000E+01  0.225837747981959E+00  0.107947730886935E-01  0.441786411622486E+01  0.211168598241330E+00
