# Final state angular momentum:   1
# Broadening parameter (in eV):    0.800
# Absorbing atom type (xiabs):   1
# Energy (eV)   sigma
  -10.00000000    0.00112826
   -9.95995996    0.00113296
   -9.91991992    0.00113768
   -9.87987988    0.00114244
   -9.83983984    0.00114722
   -9.79979980    0.00115204
   -9.75975976    0.00115689
   -9.71971972    0.00116177
   -9.67967968    0.00116668
   -9.63963964    0.00117162
   -9.59959960    0.00117660
   -9.55955956    0.00118161
   -9.51951952    0.00118665
   -9.47947948    0.00119172
   -9.43943944    0.00119683
   -9.39939940    0.00120197
   -9.35935936    0.00120715
   -9.31931932    0.00121236
   -9.27927928    0.00121761
   -9.23923924    0.00122289
   -9.19919920    0.00122821
   -9.15915916    0.00123356
   -9.11911912    0.00123895
   -9.07907908    0.00124437
   -9.03903904    0.00124984
   -8.99899900    0.00125533
   -8.95895896    0.00126087
   -8.91891892    0.00126645
   -8.87887888    0.00127206
   -8.83883884    0.00127771
   -8.79879880    0.00128340
   -8.75875876    0.00128913
   -8.71871872    0.00129490
   -8.67867868    0.00130071
   -8.63863864    0.00130656
   -8.59859860    0.00131245
   -8.55855856    0.00131838
   -8.51851852    0.00132436
   -8.47847848    0.00133037
   -8.43843844    0.00133643
   -8.39839840    0.00134253
   -8.35835836    0.00134868
   -8.31831832    0.00135487
   -8.27827828    0.00136110
   -8.23823824    0.00136738
   -8.19819820    0.00137370
   -8.15815816    0.00138007
   -8.11811812    0.00138648
   -8.07807808    0.00139294
   -8.03803804    0.00139945
   -7.99799800    0.00140600
   -7.95795796    0.00141260
   -7.91791792    0.00141925
   -7.87787788    0.00142595
   -7.83783784    0.00143270
   -7.79779780    0.00143950
   -7.75775776    0.00144635
   -7.71771772    0.00145325
   -7.67767768    0.00146020
   -7.63763764    0.00146720
   -7.59759760    0.00147425
   -7.55755756    0.00148136
   -7.51751752    0.00148852
   -7.47747748    0.00149574
   -7.43743744    0.00150301
   -7.39739740    0.00151033
   -7.35735736    0.00151771
   -7.31731732    0.00152515
   -7.27727728    0.00153264
   -7.23723724    0.00154019
   -7.19719720    0.00154780
   -7.15715716    0.00155547
   -7.11711712    0.00156320
   -7.07707708    0.00157098
   -7.03703704    0.00157883
   -6.99699700    0.00158674
   -6.95695696    0.00159471
   -6.91691692    0.00160275
   -6.87687688    0.00161084
   -6.83683684    0.00161901
   -6.79679680    0.00162723
   -6.75675676    0.00163552
   -6.71671672    0.00164388
   -6.67667668    0.00165230
   -6.63663664    0.00166080
   -6.59659660    0.00166936
   -6.55655656    0.00167799
   -6.51651652    0.00168669
   -6.47647648    0.00169546
   -6.43643644    0.00170430
   -6.39639640    0.00171321
   -6.35635636    0.00172220
   -6.31631632    0.00173126
   -6.27627628    0.00174039
   -6.23623624    0.00174961
   -6.19619620    0.00175889
   -6.15615616    0.00176826
   -6.11611612    0.00177770
   -6.07607608    0.00178723
   -6.03603604    0.00179683
   -5.99599600    0.00180651
   -5.95595596    0.00181628
   -5.91591592    0.00182613
   -5.87587588    0.00183606
   -5.83583584    0.00184608
   -5.79579580    0.00185618
   -5.75575576    0.00186637
   -5.71571572    0.00187665
   -5.67567568    0.00188702
   -5.63563564    0.00189748
   -5.59559560    0.00190802
   -5.55555556    0.00191867
   -5.51551552    0.00192940
   -5.47547548    0.00194023
   -5.43543544    0.00195116
   -5.39539540    0.00196218
   -5.35535536    0.00197330
   -5.31531532    0.00198452
   -5.27527528    0.00199584
   -5.23523524    0.00200726
   -5.19519520    0.00201878
   -5.15515516    0.00203041
   -5.11511512    0.00204215
   -5.07507508    0.00205399
   -5.03503504    0.00206594
   -4.99499499    0.00207800
   -4.95495495    0.00209017
   -4.91491491    0.00210246
   -4.87487487    0.00211486
   -4.83483483    0.00212737
   -4.79479479    0.00214000
   -4.75475475    0.00215275
   -4.71471471    0.00216562
   -4.67467467    0.00217861
   -4.63463463    0.00219173
   -4.59459459    0.00220497
   -4.55455455    0.00221833
   -4.51451451    0.00223183
   -4.47447447    0.00224545
   -4.43443443    0.00225921
   -4.39439439    0.00227309
   -4.35435435    0.00228712
   -4.31431431    0.00230128
   -4.27427427    0.00231558
   -4.23423423    0.00233002
   -4.19419419    0.00234461
   -4.15415415    0.00235934
   -4.11411411    0.00237421
   -4.07407407    0.00238924
   -4.03403403    0.00240442
   -3.99399399    0.00241975
   -3.95395395    0.00243523
   -3.91391391    0.00245087
   -3.87387387    0.00246667
   -3.83383383    0.00248264
   -3.79379379    0.00249876
   -3.75375375    0.00251506
   -3.71371371    0.00253152
   -3.67367367    0.00254816
   -3.63363363    0.00256497
   -3.59359359    0.00258195
   -3.55355355    0.00259912
   -3.51351351    0.00261646
   -3.47347347    0.00263399
   -3.43343343    0.00265171
   -3.39339339    0.00266962
   -3.35335335    0.00268772
   -3.31331331    0.00270602
   -3.27327327    0.00272451
   -3.23323323    0.00274321
   -3.19319319    0.00276211
   -3.15315315    0.00278122
   -3.11311311    0.00280054
   -3.07307307    0.00282007
   -3.03303303    0.00283983
   -2.99299299    0.00285980
   -2.95295295    0.00288000
   -2.91291291    0.00290043
   -2.87287287    0.00292108
   -2.83283283    0.00294198
   -2.79279279    0.00296311
   -2.75275275    0.00298449
   -2.71271271    0.00300611
   -2.67267267    0.00302799
   -2.63263263    0.00305011
   -2.59259259    0.00307250
   -2.55255255    0.00309516
   -2.51251251    0.00311808
   -2.47247247    0.00314127
   -2.43243243    0.00316474
   -2.39239239    0.00318849
   -2.35235235    0.00321252
   -2.31231231    0.00323685
   -2.27227227    0.00326148
   -2.23223223    0.00328640
   -2.19219219    0.00331163
   -2.15215215    0.00333718
   -2.11211211    0.00336304
   -2.07207207    0.00338922
   -2.03203203    0.00341573
   -1.99199199    0.00344258
   -1.95195195    0.00346976
   -1.91191191    0.00349729
   -1.87187187    0.00352517
   -1.83183183    0.00355342
   -1.79179179    0.00358202
   -1.75175175    0.00361100
   -1.71171171    0.00364036
   -1.67167167    0.00367010
   -1.63163163    0.00370024
   -1.59159159    0.00373077
   -1.55155155    0.00376172
   -1.51151151    0.00379307
   -1.47147147    0.00382485
   -1.43143143    0.00385707
   -1.39139139    0.00388972
   -1.35135135    0.00392282
   -1.31131131    0.00395637
   -1.27127127    0.00399039
   -1.23123123    0.00402489
   -1.19119119    0.00405987
   -1.15115115    0.00409534
   -1.11111111    0.00413132
   -1.07107107    0.00416781
   -1.03103103    0.00420482
   -0.99099099    0.00424237
   -0.95095095    0.00428046
   -0.91091091    0.00431911
   -0.87087087    0.00435833
   -0.83083083    0.00439813
   -0.79079079    0.00443852
   -0.75075075    0.00447952
   -0.71071071    0.00452113
   -0.67067067    0.00456337
   -0.63063063    0.00460626
   -0.59059059    0.00464981
   -0.55055055    0.00469403
   -0.51051051    0.00473893
   -0.47047047    0.00478454
   -0.43043043    0.00483087
   -0.39039039    0.00487793
   -0.35035035    0.00492575
   -0.31031031    0.00497433
   -0.27027027    0.00502369
   -0.23023023    0.00507386
   -0.19019019    0.00512486
   -0.15015015    0.00517669
   -0.11011011    0.00522939
   -0.07007007    0.00528268
   -0.03003003    0.00533693
    0.01001001    0.00539227
    0.05005005    0.00544875
    0.09009009    0.00550641
    0.13013013    0.00556484
    0.17017017    0.00562417
    0.21021021    0.00568455
    0.25025025    0.00574600
    0.29029029    0.00580854
    0.33033033    0.00587222
    0.37037037    0.00593704
    0.41041041    0.00600305
    0.45045045    0.00607028
    0.49049049    0.00613875
    0.53053053    0.00620851
    0.57057057    0.00627958
    0.61061061    0.00635200
    0.65065065    0.00642581
    0.69069069    0.00650105
    0.73073073    0.00657775
    0.77077077    0.00665596
    0.81081081    0.00673572
    0.85085085    0.00681707
    0.89089089    0.00690006
    0.93093093    0.00698474
    0.97097097    0.00707115
    1.01101101    0.00715935
    1.05105105    0.00724939
    1.09109109    0.00734133
    1.13113113    0.00743523
    1.17117117    0.00753113
    1.21121121    0.00762912
    1.25125125    0.00772924
    1.29129129    0.00783158
    1.33133133    0.00793619
    1.37137137    0.00804316
    1.41141141    0.00815256
    1.45145145    0.00826446
    1.49149149    0.00837896
    1.53153153    0.00849614
    1.57157157    0.00861609
    1.61161161    0.00873891
    1.65165165    0.00886469
    1.69169169    0.00899354
    1.73173173    0.00912557
    1.77177177    0.00926089
    1.81181181    0.00939963
    1.85185185    0.00954189
    1.89189189    0.00968783
    1.93193193    0.00983757
    1.97197197    0.00999126
    2.01201201    0.01014904
    2.05205205    0.01031109
    2.09209209    0.01047756
    2.13213213    0.01064864
    2.17217217    0.01082450
    2.21221221    0.01100534
    2.25225225    0.01119137
    2.29229229    0.01138281
    2.33233233    0.01157987
    2.37237237    0.01178281
    2.41241241    0.01199187
    2.45245245    0.01220733
    2.49249249    0.01242947
    2.53253253    0.01265858
    2.57257257    0.01289500
    2.61261261    0.01313905
    2.65265265    0.01339109
    2.69269269    0.01365150
    2.73273273    0.01392068
    2.77277277    0.01419906
    2.81281281    0.01448709
    2.85285285    0.01478525
    2.89289289    0.01509405
    2.93293293    0.01541404
    2.97297297    0.01574579
    3.01301301    0.01608992
    3.05305305    0.01644709
    3.09309309    0.01681799
    3.13313313    0.01720337
    3.17317317    0.01760402
    3.21321321    0.01802078
    3.25325325    0.01845456
    3.29329329    0.01890631
    3.33333333    0.01937705
    3.37337337    0.01986786
    3.41341341    0.02037990
    3.45345345    0.02091439
    3.49349349    0.02147262
    3.53353353    0.02205596
    3.57357357    0.02266586
    3.61361361    0.02330384
    3.65365365    0.02397150
    3.69369369    0.02467051
    3.73373373    0.02540259
    3.77377377    0.02616953
    3.81381381    0.02697316
    3.85385385    0.02781534
    3.89389389    0.02869794
    3.93393393    0.02962281
    3.97397397    0.03059174
    4.01401401    0.03160644
    4.05405405    0.03266850
    4.09409409    0.03377934
    4.13413413    0.03494013
    4.17417417    0.03615180
    4.21421421    0.03741495
    4.25425425    0.03872980
    4.29429429    0.04009619
    4.33433433    0.04151354
    4.37437437    0.04298079
    4.41441441    0.04449645
    4.45445445    0.04605856
    4.49449449    0.04766466
    4.53453453    0.04931178
    4.57457457    0.05099637
    4.61461461    0.05271422
    4.65465465    0.05446030
    4.69469469    0.05622869
    4.73473473    0.05801240
    4.77477477    0.05980329
    4.81481481    0.06159208
    4.85485485    0.06336845
    4.89489489    0.06512133
    4.93493493    0.06683932
    4.97497497    0.06851130
    5.01501502    0.07012714
    5.05505506    0.07167853
    5.09509510    0.07315964
    5.13513514    0.07456783
    5.17517518    0.07590397
    5.21521522    0.07717262
    5.25525526    0.07838179
    5.29529530    0.07954256
    5.33533534    0.08066835
    5.37537538    0.08177413
    5.41541542    0.08287561
    5.45545546    0.08398848
    5.49549550    0.08512770
    5.53553554    0.08630710
    5.57557558    0.08753900
    5.61561562    0.08883410
    5.65565566    0.09020142
    5.69569570    0.09164831
    5.73573574    0.09318056
    5.77577578    0.09480246
    5.81581582    0.09651682
    5.85585586    0.09832506
    5.89589590    0.10022712
    5.93593594    0.10222146
    5.97597598    0.10430494
    6.01601602    0.10647269
    6.05605606    0.10871787
    6.09609610    0.11103146
    6.13613614    0.11340193
    6.17617618    0.11581499
    6.21621622    0.11825343
    6.25625626    0.12069703
    6.29629630    0.12312282
    6.33633634    0.12550565
    6.37637638    0.12781904
    6.41641642    0.13003651
    6.45645646    0.13213316
    6.49649650    0.13408744
    6.53653654    0.13588291
    6.57657658    0.13750989
    6.61661662    0.13896660
    6.65665666    0.14025992
    6.69669670    0.14140536
    6.73673674    0.14242653
    6.77677678    0.14335396
    6.81681682    0.14422346
    6.85685686    0.14507429
    6.89689690    0.14594713
    6.93693694    0.14688212
    6.97697698    0.14791710
    7.01701702    0.14908601
    7.05705706    0.15041759
    7.09709710    0.15193433
    7.13713714    0.15365166
    7.17717718    0.15557733
    7.21721722    0.15771100
    7.25725726    0.16004400
    7.29729730    0.16255924
    7.33733734    0.16523133
    7.37737738    0.16802702
    7.41741742    0.17090577
    7.45745746    0.17382082
    7.49749750    0.17672054
    7.53753754    0.17955018
    7.57757758    0.18225399
    7.61761762    0.18477753
    7.65765766    0.18707019
    7.69769770    0.18908760
    7.73773774    0.19079382
    7.77777778    0.19216309
    7.81781782    0.19318095
    7.85785786    0.19384463
    7.89789790    0.19416274
    7.93793794    0.19415423
    7.97797798    0.19384684
    8.01801802    0.19327511
    8.05805806    0.19247815
    8.09809810    0.19149741
    8.13813814    0.19037446
    8.17817818    0.18914908
    8.21821822    0.18785749
    8.25825826    0.18653104
    8.29829830    0.18519526
    8.33833834    0.18386932
    8.37837838    0.18256592
    8.41841842    0.18129161
    8.45845846    0.18004739
    8.49849850    0.17882962
    8.53853854    0.17763097
    8.57857858    0.17644148
    8.61861862    0.17524941
    8.65865866    0.17404190
    8.69869870    0.17280546
    8.73873874    0.17152617
    8.77877878    0.17018976
    8.81881882    0.16878165
    8.85885886    0.16728709
    8.89889890    0.16569144
    8.93893894    0.16398074
    8.97897898    0.16214248
    9.01901902    0.16016659
    9.05905906    0.15804646
    9.09909910    0.15577988
    9.13913914    0.15336977
    9.17917918    0.15082447
    9.21921922    0.14815765
    9.25925926    0.14538773
    9.29929930    0.14253702
    9.33933934    0.13963043
    9.37937938    0.13669423
    9.41941942    0.13375473
    9.45945946    0.13083711
    9.49949950    0.12796452
    9.53953954    0.12515734
    9.57957958    0.12243281
    9.61961962    0.11980487
    9.65965966    0.11728418
    9.69969970    0.11487839
    9.73973974    0.11259244
    9.77977978    0.11042904
    9.81981982    0.10838906
    9.85985986    0.10647200
    9.89989990    0.10467644
    9.93993994    0.10300031
    9.97997998    0.10144126
   10.02002002    0.09999680
   10.06006006    0.09866447
   10.10010010    0.09744188
   10.14014014    0.09632678
   10.18018018    0.09531703
   10.22022022    0.09441058
   10.26026026    0.09360545
   10.30030030    0.09289972
   10.34034034    0.09229144
   10.38038038    0.09177864
   10.42042042    0.09135918
   10.46046046    0.09103073
   10.50050050    0.09079059
   10.54054054    0.09063567
   10.58058058    0.09056241
   10.62062062    0.09056679
   10.66066066    0.09064438
   10.70070070    0.09079059
   10.74074074    0.09100087
   10.78078078    0.09127102
   10.82082082    0.09159758
   10.86086086    0.09197802
   10.90090090    0.09241104
   10.94094094    0.09289655
   10.98098098    0.09343562
   11.02102102    0.09403020
   11.06106106    0.09468266
   11.10110110    0.09539528
   11.14114114    0.09616960
   11.18118118    0.09700577
   11.22122122    0.09790191
   11.26126126    0.09885359
   11.30130130    0.09985339
   11.34134134    0.10089061
   11.38138138    0.10195125
   11.42142142    0.10301814
   11.46146146    0.10407137
   11.50150150    0.10508895
   11.54154154    0.10604774
   11.58158158    0.10692457
   11.62162162    0.10769740
   11.66166166    0.10834662
   11.70170170    0.10885613
   11.74174174    0.10921424
   11.78178178    0.10941425
   11.82182182    0.10945462
   11.86186186    0.10933887
   11.90190190    0.10907503
   11.94194194    0.10867493
   11.98198198    0.10815337
   12.02202202    0.10752720
   12.06206206    0.10681448
   12.10210210    0.10603380
   12.14214214    0.10520357
   12.18218218    0.10434164
   12.22222222    0.10346485
   12.26226226    0.10258880
   12.30230230    0.10172755
   12.34234234    0.10089348
   12.38238238    0.10009707
   12.42242242    0.09934671
   12.46246246    0.09864857
   12.50250250    0.09800638
   12.54254254    0.09742133
   12.58258258    0.09689198
   12.62262262    0.09641426
   12.66266266    0.09598153
   12.70270270    0.09558484
   12.74274274    0.09521328
   12.78278278    0.09485450
   12.82282282    0.09449539
   12.86286286    0.09412281
   12.90290290    0.09372446
   12.94294294    0.09328969
   12.98298298    0.09281021
   13.02302302    0.09228070
   13.06306306    0.09169916
   13.10310310    0.09106702
   13.14314314    0.09038908
   13.18318318    0.08967313
   13.22322322    0.08892951
   13.26326326    0.08817052
   13.30330330    0.08740987
   13.34334334    0.08666202
   13.38338338    0.08594174
   13.42342342    0.08526366
   13.46346346    0.08464193
   13.50350350    0.08408992
   13.54354354    0.08362013
   13.58358358    0.08324396
   13.62362362    0.08297171
   13.66366366    0.08281248
   13.70370370    0.08277417
   13.74374374    0.08286341
   13.78378378    0.08308551
   13.82382382    0.08344441
   13.86386386    0.08394254
   13.90390390    0.08458063
   13.94394394    0.08535759
   13.98398398    0.08627019
   14.02402402    0.08731282
   14.06406406    0.08847724
   14.10410410    0.08975225
   14.14414414    0.09112351
   14.18418418    0.09257332
   14.22422422    0.09408052
   14.26426426    0.09562054
   14.30430430    0.09716556
   14.34434434    0.09868487
   14.38438438    0.10014545
   14.42442442    0.10151280
   14.46446446    0.10275193
   14.50450450    0.10382862
   14.54454454    0.10471086
   14.58458458    0.10537023
   14.62462462    0.10578331
   14.66466466    0.10593290
   14.70470470    0.10580882
   14.74474474    0.10540840
   14.78478478    0.10473635
   14.82482482    0.10380429
   14.86486486    0.10262970
   14.90490490    0.10123474
   14.94494494    0.09964475
   14.98498498    0.09788678
   15.02502503    0.09598827
   15.06506507    0.09397578
   15.10510511    0.09187410
   15.14514515    0.08970558
   15.18518519    0.08748968
   15.22522523    0.08524291
   15.26526527    0.08297886
   15.30530531    0.08070848
   15.34534535    0.07844052
   15.38538539    0.07618199
   15.42542543    0.07393867
   15.46546547    0.07171557
   15.50550551    0.06951739
   15.54554555    0.06734874
   15.58558559    0.06521440
   15.62562563    0.06311930
   15.66566567    0.06106852
   15.70570571    0.05906713
   15.74574575    0.05712005
   15.78578579    0.05523181
   15.82582583    0.05340647
   15.86586587    0.05164741
   15.90590591    0.04995728
   15.94594595    0.04833796
   15.98598599    0.04679060
   16.02602603    0.04531558
   16.06606607    0.04391265
   16.10610611    0.04258101
   16.14614615    0.04131935
   16.18618619    0.04012601
   16.22622623    0.03899900
   16.26626627    0.03793616
   16.30630631    0.03693515
   16.34634635    0.03599357
   16.38638639    0.03510899
   16.42642643    0.03427901
   16.46646647    0.03350125
   16.50650651    0.03277343
   16.54654655    0.03209335
   16.58658659    0.03145893
   16.62662663    0.03086820
   16.66666667    0.03031932
   16.70670671    0.02981059
   16.74674675    0.02934042
   16.78678679    0.02890737
   16.82682683    0.02851012
   16.86686687    0.02814748
   16.90690691    0.02781839
   16.94694695    0.02752190
   16.98698699    0.02725718
   17.02702703    0.02702352
   17.06706707    0.02682032
   17.10710711    0.02664706
   17.14714715    0.02650334
   17.18718719    0.02638885
   17.22722723    0.02630335
   17.26726727    0.02624668
   17.30730731    0.02621875
   17.34734735    0.02621952
   17.38738739    0.02624897
