# Final state angular momentum:   1
# Broadening parameter (in eV):    0.800
# Absorbing atom type (xiabs):   1
# Energy (eV)   sigma
  -10.00000000    0.00006017
   -9.88988989    0.00006084
   -9.77977978    0.00006152
   -9.66966967    0.00006221
   -9.55955956    0.00006292
   -9.44944945    0.00006364
   -9.33933934    0.00006438
   -9.22922923    0.00006512
   -9.11911912    0.00006588
   -9.00900901    0.00006666
   -8.89889890    0.00006745
   -8.78878879    0.00006826
   -8.67867868    0.00006908
   -8.56856857    0.00006991
   -8.45845846    0.00007077
   -8.34834835    0.00007164
   -8.23823824    0.00007253
   -8.12812813    0.00007343
   -8.01801802    0.00007435
   -7.90790791    0.00007530
   -7.79779780    0.00007626
   -7.68768769    0.00007724
   -7.57757758    0.00007824
   -7.46746747    0.00007926
   -7.35735736    0.00008031
   -7.24724725    0.00008137
   -7.13713714    0.00008246
   -7.02702703    0.00008358
   -6.91691692    0.00008471
   -6.80680681    0.00008588
   -6.69669670    0.00008707
   -6.58658659    0.00008828
   -6.47647648    0.00008952
   -6.36636637    0.00009080
   -6.25625626    0.00009210
   -6.14614615    0.00009343
   -6.03603604    0.00009479
   -5.92592593    0.00009619
   -5.81581582    0.00009761
   -5.70570571    0.00009908
   -5.59559560    0.00010058
   -5.48548549    0.00010211
   -5.37537538    0.00010368
   -5.26526527    0.00010530
   -5.15515516    0.00010695
   -5.04504505    0.00010865
   -4.93493493    0.00011039
   -4.82482482    0.00011218
   -4.71471471    0.00011401
   -4.60460460    0.00011590
   -4.49449449    0.00011783
   -4.38438438    0.00011982
   -4.27427427    0.00012186
   -4.16416416    0.00012396
   -4.05405405    0.00012612
   -3.94394394    0.00012834
   -3.83383383    0.00013062
   -3.72372372    0.00013298
   -3.61361361    0.00013540
   -3.50350350    0.00013789
   -3.39339339    0.00014046
   -3.28328328    0.00014311
   -3.17317317    0.00014585
   -3.06306306    0.00014866
   -2.95295295    0.00015157
   -2.84284284    0.00015458
   -2.73273273    0.00015768
   -2.62262262    0.00016088
   -2.51251251    0.00016419
   -2.40240240    0.00016762
   -2.29229229    0.00017117
   -2.18218218    0.00017484
   -2.07207207    0.00017864
   -1.96196196    0.00018257
   -1.85185185    0.00018666
   -1.74174174    0.00019089
   -1.63163163    0.00019529
   -1.52152152    0.00019985
   -1.41141141    0.00020460
   -1.30130130    0.00020953
   -1.19119119    0.00021466
   -1.08108108    0.00022001
   -0.97097097    0.00022557
   -0.86086086    0.00023138
   -0.75075075    0.00023743
   -0.64064064    0.00024375
   -0.53053053    0.00025036
   -0.42042042    0.00025727
   -0.31031031    0.00026450
   -0.20020020    0.00027208
   -0.09009009    0.00028001
    0.02002002    0.00028827
    0.13013013    0.00029713
    0.24024024    0.00030635
    0.35035035    0.00031606
    0.46046046    0.00032629
    0.57057057    0.00033709
    0.68068068    0.00034851
    0.79079079    0.00036059
    0.90090090    0.00037339
    1.01101101    0.00038698
    1.12112112    0.00040143
    1.23123123    0.00041681
    1.34134134    0.00043322
    1.45145145    0.00045076
    1.56156156    0.00046955
    1.67167167    0.00048971
    1.78178178    0.00051140
    1.89189189    0.00053479
    2.00200200    0.00056008
    2.11211211    0.00058750
    2.22222222    0.00061732
    2.33233233    0.00064983
    2.44244244    0.00068541
    2.55255255    0.00072445
    2.66266266    0.00076741
    2.77277277    0.00081481
    2.88288288    0.00086716
    2.99299299    0.00092503
    3.10310310    0.00098889
    3.21321321    0.00105919
    3.32332332    0.00113630
    3.43343343    0.00122063
    3.54354354    0.00131284
    3.65365365    0.00141400
    3.76376376    0.00152551
    3.87387387    0.00164887
    3.98398398    0.00178550
    4.09409409    0.00193691
    4.20420420    0.00210523
    4.31431431    0.00229397
    4.42442442    0.00250815
    4.53453453    0.00275377
    4.64464464    0.00303669
    4.75475475    0.00336120
    4.86486486    0.00372861
    4.97497497    0.00413583
    5.08508509    0.00457401
    5.19519520    0.00502757
    5.30530531    0.00547419
    5.41541542    0.00588730
    5.52552553    0.00624199
    5.63563564    0.00652323
    5.74574575    0.00673184
    5.85585586    0.00688377
    5.96596597    0.00700260
    6.07607608    0.00711023
    6.18618619    0.00722038
    6.29629630    0.00733634
    6.40640641    0.00745220
    6.51651652    0.00755586
    6.62662663    0.00763270
    6.73673674    0.00766998
    6.84684685    0.00766104
    6.95695696    0.00760783
    7.06706707    0.00751968
    7.17717718    0.00740915
    7.28728729    0.00728801
    7.39739740    0.00716574
    7.50750751    0.00705017
    7.61761762    0.00694789
    7.72772773    0.00686323
    7.83783784    0.00679648
    7.94794795    0.00674259
    8.05805806    0.00669097
    8.16816817    0.00662702
    8.27827828    0.00653577
    8.38838839    0.00640647
    8.49849850    0.00623560
    8.60860861    0.00602652
    8.71871872    0.00578682
    8.82882883    0.00552605
    8.93893894    0.00525503
    9.04904905    0.00498573
    9.15915916    0.00473029
    9.26926927    0.00449911
    9.37937938    0.00429959
    9.48948949    0.00413599
    9.59959960    0.00401010
    9.70970971    0.00392193
    9.81981982    0.00386992
    9.92992993    0.00385121
   10.04004004    0.00386213
   10.15015015    0.00389911
   10.26026026    0.00395922
   10.37037037    0.00404021
   10.48048048    0.00414004
   10.59059059    0.00425672
   10.70070070    0.00438865
   10.81081081    0.00453445
   10.92092092    0.00469149
   11.03103103    0.00485376
   11.14114114    0.00501110
   11.25125125    0.00515053
   11.36136136    0.00525909
   11.47147147    0.00532654
   11.58158158    0.00534733
   11.69169169    0.00532222
   11.80180180    0.00525884
   11.91191191    0.00517004
   12.02202202    0.00507022
   12.13213213    0.00497121
   12.24224224    0.00487978
   12.35235235    0.00479759
   12.46246246    0.00472310
   12.57257257    0.00465453
   12.68268268    0.00459248
   12.79279279    0.00454051
   12.90290290    0.00450353
   13.01301301    0.00448534
   13.12312312    0.00448666
   13.23323323    0.00450483
   13.34334334    0.00453509
   13.45345345    0.00457191
   13.56356356    0.00460937
   13.67367367    0.00464041
   13.78378378    0.00465661
   13.89389389    0.00464949
   14.00400400    0.00461300
   14.11411411    0.00454607
   14.22422422    0.00445405
   14.33433433    0.00434806
   14.44444444    0.00424184
   14.55455455    0.00414721
   14.66466466    0.00407053
   14.77477477    0.00401208
   14.88488488    0.00396770
   14.99499499    0.00393134
   15.10510511    0.00389711
   15.21521522    0.00386088
   15.32532533    0.00382106
   15.43543544    0.00377835
   15.54554555    0.00373435
   15.65565566    0.00369046
   15.76576577    0.00364774
   15.87587588    0.00360724
   15.98598599    0.00357006
   16.09609610    0.00353700
   16.20620621    0.00350880
   16.31631632    0.00348687
   16.42642643    0.00347363
   16.53653654    0.00347137
   16.64664665    0.00348018
   16.75675676    0.00349597
   16.86686687    0.00351030
   16.97697698    0.00351239
   17.08708709    0.00349308
   17.19719720    0.00344862
   17.30730731    0.00338209
   17.41741742    0.00330167
   17.52752753    0.00321725
   17.63763764    0.00313740
   17.74774775    0.00306790
   17.85785786    0.00301179
   17.96796797    0.00297024
   18.07807808    0.00294336
   18.18818819    0.00293049
   18.29829830    0.00293012
   18.40840841    0.00293982
   18.51851852    0.00295637
   18.62862863    0.00297600
   18.73873874    0.00299464
   18.84884885    0.00300837
   18.95895896    0.00301409
   19.06906907    0.00301043
   19.17917918    0.00299796
   19.28928929    0.00297845
   19.39939940    0.00295367
   19.50950951    0.00292491
   19.61961962    0.00289358
   19.72972973    0.00286196
   19.83983984    0.00283301
   19.94994995    0.00280912
   20.06006006    0.00279065
   20.17017017    0.00277558
   20.28028028    0.00276094
   20.39039039    0.00274502
   20.50050050    0.00272892
   20.61061061    0.00271617
   20.72072072    0.00271083
   20.83083083    0.00271558
   20.94094094    0.00273082
   21.05105105    0.00275465
   21.16116116    0.00278357
   21.27127127    0.00281325
   21.38138138    0.00283931
   21.49149149    0.00285806
   21.60160160    0.00286716
   21.71171171    0.00286627
   21.82182182    0.00285752
   21.93193193    0.00284535
   22.04204204    0.00283518
   22.15215215    0.00283146
   22.26226226    0.00283630
   22.37237237    0.00284948
   22.48248248    0.00286953
   22.59259259    0.00289534
   22.70270270    0.00292709
   22.81281281    0.00296620
   22.92292292    0.00301426
   23.03303303    0.00307154
   23.14314314    0.00313598
   23.25325325    0.00320307
   23.36336336    0.00326665
   23.47347347    0.00332025
   23.58358358    0.00335807
   23.69369369    0.00337532
   23.80380380    0.00336865
   23.91391391    0.00333727
   24.02402402    0.00328454
   24.13413413    0.00321829
   24.24424424    0.00314938
   24.35435435    0.00308879
   24.46446446    0.00304496
   24.57457457    0.00302218
   24.68468468    0.00302011
   24.79479479    0.00303428
   24.90490490    0.00305731
   25.01501502    0.00308062
   25.12512513    0.00309634
   25.23523524    0.00309862
   25.34534535    0.00308428
   25.45545546    0.00305281
   25.56556557    0.00300590
   25.67567568    0.00294674
   25.78578579    0.00287936
   25.89589590    0.00280810
   26.00600601    0.00273708
   26.11611612    0.00266961
   26.22622623    0.00260804
   26.33633634    0.00255403
   26.44644645    0.00250901
   26.55655656    0.00247413
   26.66666667    0.00244971
   26.77677678    0.00243486
   26.88688689    0.00242749
   26.99699700    0.00242500
   27.10710711    0.00242523
   27.21721722    0.00242713
   27.32732733    0.00243103
   27.43743744    0.00243810
   27.54754755    0.00244952
   27.65765766    0.00246534
   27.76776777    0.00248366
   27.87787788    0.00250042
   27.98798799    0.00251015
   28.09809810    0.00250764
   28.20820821    0.00248974
   28.31831832    0.00245660
   28.42842843    0.00241140
   28.53853854    0.00235909
   28.64864865    0.00230492
   28.75875876    0.00225336
   28.86886887    0.00220770
   28.97897898    0.00216995
   29.08908909    0.00214085
   29.19919920    0.00211984
   29.30930931    0.00210499
   29.41941942    0.00209345
   29.52952953    0.00208217
   29.63963964    0.00206889
   29.74974975    0.00205261
   29.85985986    0.00203349
   29.96996997    0.00201222
   30.08008008    0.00198947
   30.19019019    0.00196566
   30.30030030    0.00194104
   30.41041041    0.00191568
   30.52052052    0.00188948
   30.63063063    0.00186194
   30.74074074    0.00183213
   30.85085085    0.00179885
   30.96096096    0.00176115
   31.07107107    0.00171887
   31.18118118    0.00167282
   31.29129129    0.00162462
   31.40140140    0.00157611
   31.51151151    0.00152877
   31.62162162    0.00148348
   31.73173173    0.00144049
   31.84184184    0.00139963
   31.95195195    0.00136050
   32.06206206    0.00132262
   32.17217217    0.00128562
   32.28228228    0.00124950
   32.39239239    0.00121492
   32.50250250    0.00118323
   32.61261261    0.00115608
   32.72272272    0.00113492
   32.83283283    0.00112043
   32.94294294    0.00111232
   33.05305305    0.00110922
   33.16316316    0.00110893
   33.27327327    0.00110881
   33.38338338    0.00110642
   33.49349349    0.00110013
   33.60360360    0.00108955
   33.71371371    0.00107547
   33.82382382    0.00105940
   33.93393393    0.00104293
   34.04404404    0.00102722
   34.15415415    0.00101280
   34.26426426    0.00099960
   34.37437437    0.00098723
   34.48448448    0.00097509
   34.59459459    0.00096252
   34.70470470    0.00094883
   34.81481481    0.00093342
   34.92492492    0.00091595
   35.03503504    0.00089650
   35.14514515    0.00087553
   35.25525526    0.00085376
   35.36536537    0.00083192
   35.47547548    0.00081070
   35.58558559    0.00079073
   35.69569570    0.00077264
   35.80580581    0.00075706
   35.91591592    0.00074448
   36.02602603    0.00073522
   36.13613614    0.00072935
   36.24624625    0.00072671
   36.35635636    0.00072699
   36.46646647    0.00072961
   36.57657658    0.00073371
   36.68668669    0.00073810
   36.79679680    0.00074146
   36.90690691    0.00074263
   37.01701702    0.00074096
   37.12712713    0.00073657
   37.23723724    0.00073026
   37.34734735    0.00072318
   37.45745746    0.00071646
   37.56756757    0.00071080
   37.67767768    0.00070637
   37.78778779    0.00070278
   37.89789790    0.00069931
   38.00800801    0.00069520
   38.11811812    0.00068996
   38.22822823    0.00068350
   38.33833834    0.00067607
   38.44844845    0.00066810
   38.55855856    0.00065998
   38.66866867    0.00065192
   38.77877878    0.00064380
   38.88888889    0.00063531
   38.99899900    0.00062601
   39.10910911    0.00061556
   39.21921922    0.00060394
   39.32932933    0.00059148
   39.43943944    0.00057888
   39.54954955    0.00056702
   39.65965966    0.00055680
   39.76976977    0.00054895
   39.87987988    0.00054390
   39.98998999    0.00054169
   40.10010010    0.00054198
   40.21021021    0.00054410
   40.32032032    0.00054715
   40.43043043    0.00055008
   40.54054054    0.00055176
   40.65065065    0.00055113
   40.76076076    0.00054741
   40.87087087    0.00054027
   40.98098098    0.00052988
   41.09109109    0.00051682
   41.20120120    0.00050193
   41.31131131    0.00048610
   41.42142142    0.00047015
   41.53153153    0.00045467
   41.64164164    0.00043999
   41.75175175    0.00042621
   41.86186186    0.00041324
   41.97197197    0.00040096
   42.08208208    0.00038931
   42.19219219    0.00037830
   42.30230230    0.00036804
   42.41241241    0.00035861
   42.52252252    0.00035008
   42.63263263    0.00034240
   42.74274274    0.00033544
   42.85285285    0.00032906
   42.96296296    0.00032314
   43.07307307    0.00031762
   43.18318318    0.00031247
   43.29329329    0.00030768
   43.40340340    0.00030318
   43.51351351    0.00029892
   43.62362362    0.00029488
   43.73373373    0.00029113
   43.84384384    0.00028782
   43.95395395    0.00028517
   44.06406406    0.00028340
   44.17417417    0.00028268
   44.28428428    0.00028303
   44.39439439    0.00028431
   44.50450450    0.00028618
   44.61461461    0.00028818
   44.72472472    0.00028978
   44.83483483    0.00029057
   44.94494494    0.00029032
   45.05505506    0.00028907
   45.16516517    0.00028707
   45.27527528    0.00028469
   45.38538539    0.00028226
   45.49549550    0.00028000
   45.60560561    0.00027797
   45.71571572    0.00027611
   45.82582583    0.00027428
   45.93593594    0.00027235
   46.04604605    0.00027025
   46.15615616    0.00026799
   46.26626627    0.00026565
   46.37637638    0.00026332
   46.48648649    0.00026109
   46.59659660    0.00025899
   46.70670671    0.00025705
   46.81681682    0.00025530
   46.92692693    0.00025378
   47.03703704    0.00025255
   47.14714715    0.00025171
   47.25725726    0.00025132
   47.36736737    0.00025137
   47.47747748    0.00025183
   47.58758759    0.00025262
   47.69769770    0.00025364
   47.80780781    0.00025481
   47.91791792    0.00025605
   48.02802803    0.00025726
   48.13813814    0.00025834
   48.24824825    0.00025919
   48.35835836    0.00025975
   48.46846847    0.00026000
   48.57857858    0.00025996
   48.68868869    0.00025967
   48.79879880    0.00025918
   48.90890891    0.00025857
   49.01901902    0.00025786
   49.12912913    0.00025714
   49.23923924    0.00025646
   49.34934935    0.00025591
   49.45945946    0.00025554
   49.56956957    0.00025541
   49.67967968    0.00025545
   49.78978979    0.00025552
   49.89989990    0.00025535
   50.01001001    0.00025464
   50.12012012    0.00025307
   50.23023023    0.00025042
   50.34034034    0.00024660
   50.45045045    0.00024166
   50.56056056    0.00023577
   50.67067067    0.00022925
   50.78078078    0.00022246
   50.89089089    0.00021582
   51.00100100    0.00020967
   51.11111111    0.00020423
   51.22122122    0.00019956
   51.33133133    0.00019560
   51.44144144    0.00019217
   51.55155155    0.00018906
   51.66166166    0.00018610
   51.77177177    0.00018317
   51.88188188    0.00018024
   51.99199199    0.00017730
   52.10210210    0.00017434
   52.21221221    0.00017136
   52.32232232    0.00016835
   52.43243243    0.00016531
   52.54254254    0.00016227
   52.65265265    0.00015927
   52.76276276    0.00015633
   52.87287287    0.00015346
   52.98298298    0.00015063
   53.09309309    0.00014786
   53.20320320    0.00014513
   53.31331331    0.00014246
   53.42342342    0.00013982
   53.53353353    0.00013717
   53.64364364    0.00013446
   53.75375375    0.00013166
   53.86386386    0.00012877
   53.97397397    0.00012581
   54.08408408    0.00012288
   54.19419419    0.00012007
   54.30430430    0.00011749
   54.41441441    0.00011521
   54.52452452    0.00011326
   54.63463463    0.00011162
   54.74474474    0.00011023
   54.85485485    0.00010902
   54.96496496    0.00010794
   55.07507508    0.00010697
   55.18518519    0.00010615
   55.29529530    0.00010550
   55.40540541    0.00010500
   55.51551552    0.00010464
   55.62562563    0.00010437
   55.73573574    0.00010412
   55.84584585    0.00010382
   55.95595596    0.00010338
   56.06606607    0.00010270
   56.17617618    0.00010167
   56.28628629    0.00010023
   56.39639640    0.00009836
   56.50650651    0.00009613
   56.61661662    0.00009369
   56.72672673    0.00009119
   56.83683684    0.00008877
   56.94694695    0.00008654
   57.05705706    0.00008452
   57.16716717    0.00008269
   57.27727728    0.00008099
   57.38738739    0.00007937
   57.49749750    0.00007776
   57.60760761    0.00007614
   57.71771772    0.00007448
   57.82782783    0.00007280
   57.93793794    0.00007114
   58.04804805    0.00006951
   58.15815816    0.00006795
   58.26826827    0.00006646
   58.37837838    0.00006506
   58.48848849    0.00006372
   58.59859860    0.00006244
   58.70870871    0.00006119
   58.81881882    0.00005994
   58.92892893    0.00005867
   59.03903904    0.00005737
   59.14914915    0.00005606
   59.25925926    0.00005476
   59.36936937    0.00005351
   59.47947948    0.00005231
   59.58958959    0.00005120
   59.69969970    0.00005016
   59.80980981    0.00004919
   59.91991992    0.00004830
   60.03003003    0.00004747
   60.14014014    0.00004670
   60.25025025    0.00004598
   60.36036036    0.00004531
   60.47047047    0.00004467
   60.58058058    0.00004405
   60.69069069    0.00004345
   60.80080080    0.00004284
   60.91091091    0.00004223
   61.02102102    0.00004160
   61.13113113    0.00004097
   61.24124124    0.00004034
   61.35135135    0.00003973
   61.46146146    0.00003913
   61.57157157    0.00003857
   61.68168168    0.00003804
   61.79179179    0.00003755
   61.90190190    0.00003710
   62.01201201    0.00003669
   62.12212212    0.00003632
   62.23223223    0.00003599
   62.34234234    0.00003569
   62.45245245    0.00003543
   62.56256256    0.00003519
   62.67267267    0.00003497
   62.78278278    0.00003478
   62.89289289    0.00003462
   63.00300300    0.00003448
   63.11311311    0.00003437
   63.22322322    0.00003428
   63.33333333    0.00003422
   63.44344344    0.00003419
   63.55355355    0.00003417
   63.66366366    0.00003418
   63.77377377    0.00003422
   63.88388388    0.00003427
   63.99399399    0.00003434
   64.10410410    0.00003444
   64.21421421    0.00003456
   64.32432432    0.00003470
   64.43443443    0.00003487
   64.54454454    0.00003506
   64.65465465    0.00003529
   64.76476476    0.00003556
   64.87487487    0.00003585
   64.98498498    0.00003618
   65.09509510    0.00003653
   65.20520521    0.00003689
   65.31531532    0.00003728
