                   u          alpha(angstrong)       alpha(a.u.)  

                   0.0000     1.523876E+00           1.028363E+01
                   0.1000     1.515452E+00           1.022677E+01
                   0.2000     1.490970E+00           1.006156E+01
                   0.3000     1.452596E+00           9.802601E+00
                   0.4000     1.403340E+00           9.470207E+00
                   0.5000     1.346458E+00           9.086347E+00
                   0.6000     1.284971E+00           8.671416E+00
                   0.7000     1.221402E+00           8.242430E+00
                   0.8000     1.157689E+00           7.812470E+00
                   0.9000     1.095220E+00           7.390912E+00
                   1.0000     1.034927E+00           6.984036E+00
                   1.1000     9.773851E-01           6.595722E+00
                   1.2000     9.229063E-01           6.228081E+00
                   1.3000     8.716194E-01           5.881979E+00
                   1.4000     8.235272E-01           5.557437E+00
                   1.5000     7.785508E-01           5.253921E+00
                   1.6000     7.365608E-01           4.970559E+00
                   1.7000     6.973986E-01           4.706279E+00
                   1.8000     6.608916E-01           4.459918E+00
                   1.9000     6.268628E-01           4.230280E+00
                   2.0000     5.951376E-01           4.016188E+00
                   2.1000     5.655474E-01           3.816503E+00
                   2.2000     5.379322E-01           3.630147E+00
                   2.3000     5.121419E-01           3.456105E+00
                   2.4000     4.880365E-01           3.293434E+00
                   2.5000     4.654867E-01           3.141260E+00
                   2.6000     4.443728E-01           2.998776E+00
                   2.7000     4.245849E-01           2.865241E+00
                   2.8000     4.060220E-01           2.739973E+00
                   2.9000     3.885917E-01           2.622347E+00
                   3.0000     3.722091E-01           2.511791E+00
                   3.1000     3.567965E-01           2.407782E+00
                   3.2000     3.422827E-01           2.309838E+00
                   3.3000     3.286026E-01           2.217520E+00
                   3.4000     3.156964E-01           2.130425E+00
                   3.5000     3.035092E-01           2.048182E+00
                   3.6000     2.919908E-01           1.970452E+00
                   3.7000     2.810950E-01           1.896923E+00
                   3.8000     2.707794E-01           1.827310E+00
                   3.9000     2.610049E-01           1.761348E+00
                   4.0000     2.517355E-01           1.698796E+00
                   4.1000     2.429383E-01           1.639429E+00
                   4.2000     2.345826E-01           1.583042E+00
                   4.3000     2.266403E-01           1.529445E+00
                   4.4000     2.190854E-01           1.478461E+00
                   4.5000     2.118936E-01           1.429929E+00
                   4.6000     2.050428E-01           1.383698E+00
                   4.7000     1.985123E-01           1.339628E+00
                   4.8000     1.922830E-01           1.297590E+00
                   4.9000     1.863369E-01           1.257464E+00
                   5.0000     1.806577E-01           1.219139E+00
                   5.2500     1.675290E-01           1.130542E+00
                   5.5000     1.557623E-01           1.051136E+00
                   5.7500     1.451791E-01           9.797172E-01
                   6.0000     1.356286E-01           9.152673E-01
                   6.2500     1.269830E-01           8.569236E-01
                   6.5000     1.191332E-01           8.039506E-01
                   6.7500     1.119860E-01           7.557187E-01
                   7.0000     1.054611E-01           7.116866E-01
                   7.2500     9.948928E-02           6.713870E-01
                   7.5000     9.401060E-02           6.344150E-01
                   7.7500     8.897284E-02           6.004185E-01
                   8.0000     8.433045E-02           5.690901E-01
                   8.2500     8.004359E-02           5.401609E-01
                   8.5000     7.607722E-02           5.133945E-01
                   8.7500     7.240045E-02           4.885825E-01
                   9.0000     6.898602E-02           4.655408E-01
                   9.2500     6.580977E-02           4.441063E-01
                   9.5000     6.285020E-02           4.241342E-01
                   9.7500     6.008819E-02           4.054952E-01
                  10.0000     5.750665E-02           3.880741E-01
                  10.2500     5.509029E-02           3.717677E-01
                  10.5000     5.282538E-02           3.564833E-01
                  10.7500     5.069959E-02           3.421378E-01
                  11.0000     4.870180E-02           3.286560E-01
                  11.2500     4.682197E-02           3.159703E-01
                  11.5000     4.505102E-02           3.040194E-01
                  11.7500     4.338073E-02           2.927477E-01
                  12.0000     4.180363E-02           2.821049E-01
                  12.2500     4.031292E-02           2.720451E-01
                  12.5000     3.890241E-02           2.625265E-01
                  12.7500     3.756645E-02           2.535110E-01
                  13.0000     3.629988E-02           2.449637E-01
                  13.2500     3.509797E-02           2.368528E-01
                  13.5000     3.395638E-02           2.291490E-01
                  13.7500     3.287115E-02           2.218255E-01
                  14.0000     3.183861E-02           2.148576E-01
                  14.2500     3.085539E-02           2.082225E-01
                  14.5000     2.991840E-02           2.018994E-01
                  14.7500     2.902476E-02           1.958688E-01
                  15.0000     2.817184E-02           1.901130E-01
                  15.2500     2.735719E-02           1.846155E-01
                  15.5000     2.657853E-02           1.793608E-01
                  15.7500     2.583377E-02           1.743349E-01
                  16.0000     2.512095E-02           1.695246E-01
                  16.2500     2.443826E-02           1.649175E-01
                  16.5000     2.378401E-02           1.605025E-01
                  16.7500     2.315664E-02           1.562687E-01
                  17.0000     2.255467E-02           1.522065E-01
                  17.2500     2.197675E-02           1.483065E-01
                  17.5000     2.142159E-02           1.445601E-01
                  17.7500     2.088801E-02           1.409593E-01
                  18.0000     2.037489E-02           1.374966E-01
                  18.2500     1.988118E-02           1.341649E-01
                  18.5000     1.940591E-02           1.309576E-01
                  18.7500     1.894816E-02           1.278685E-01
                  19.0000     1.850707E-02           1.248919E-01
                  19.2500     1.808183E-02           1.220222E-01
                  19.5000     1.767167E-02           1.192544E-01
                  19.7500     1.727590E-02           1.165835E-01
                  20.0000     1.689382E-02           1.140051E-01
                  20.2500     1.652481E-02           1.115149E-01
                  20.5000     1.616826E-02           1.091089E-01
                  20.7500     1.582363E-02           1.067831E-01
                  21.0000     1.549036E-02           1.045341E-01
                  21.2500     1.516796E-02           1.023585E-01
                  21.5000     1.485596E-02           1.002530E-01
                  21.7500     1.455391E-02           9.821462E-02
                  22.0000     1.426137E-02           9.624047E-02
                  22.2500     1.397794E-02           9.432783E-02
                  22.5000     1.370326E-02           9.247416E-02
                  22.7500     1.343694E-02           9.067697E-02
                  23.0000     1.317865E-02           8.893394E-02
                  23.2500     1.292807E-02           8.724296E-02
                  23.5000     1.268488E-02           8.560182E-02
                  23.7500     1.244880E-02           8.400864E-02
                  24.0000     1.221953E-02           8.246146E-02
                  24.2500     1.199682E-02           8.095854E-02
                  24.5000     1.178041E-02           7.949814E-02
                  24.7500     1.157006E-02           7.807865E-02
                  25.0000     1.136555E-02           7.669852E-02
                  25.2500     1.116665E-02           7.535629E-02
                  25.5000     1.097316E-02           7.405053E-02
                  25.7500     1.078487E-02           7.277992E-02
                  26.0000     1.060160E-02           7.154317E-02
                  26.2500     1.042317E-02           7.033907E-02
                  26.5000     1.024941E-02           6.916645E-02
                  26.7500     1.008014E-02           6.802419E-02
                  27.0000     9.915222E-03           6.691123E-02
                  27.2500     9.754490E-03           6.582656E-02
                  27.5000     9.597804E-03           6.476919E-02
                  27.7500     9.445027E-03           6.373820E-02
                  28.0000     9.296027E-03           6.273270E-02
                  28.2500     9.150678E-03           6.175183E-02
                  28.5000     9.008858E-03           6.079479E-02
                  28.7500     8.870451E-03           5.986077E-02
                  29.0000     8.735345E-03           5.894903E-02
                  29.2500     8.603434E-03           5.805885E-02
                  29.5000     8.474615E-03           5.718954E-02
                  29.7500     8.348788E-03           5.634041E-02
                  30.0000     8.225862E-03           5.551087E-02
                  30.2500     8.105743E-03           5.470027E-02
                  30.5000     7.988346E-03           5.390803E-02
                  30.7500     7.873586E-03           5.313359E-02
                  31.0000     7.761384E-03           5.237641E-02
                  31.2500     7.651657E-03           5.163594E-02
                  31.5000     7.544341E-03           5.091173E-02
                  31.7500     7.439355E-03           5.020326E-02
                  32.0000     7.336633E-03           4.951006E-02
                  32.2500     7.236110E-03           4.883169E-02
                  32.5000     7.137721E-03           4.816773E-02
                  32.7500     7.041403E-03           4.751774E-02
                  33.0000     6.947099E-03           4.688135E-02
                  33.2500     6.854749E-03           4.625814E-02
                  33.5000     6.764303E-03           4.564778E-02
                  33.7500     6.675701E-03           4.504986E-02
                  34.0000     6.588896E-03           4.446407E-02
                  34.2500     6.503837E-03           4.389006E-02
                  34.5000     6.420476E-03           4.332752E-02
                  34.7500     6.338767E-03           4.277612E-02
                  35.0000     6.258666E-03           4.223557E-02
                  35.2500     6.180130E-03           4.170558E-02
                  35.5000     6.103116E-03           4.118587E-02
                  35.7500     6.027585E-03           4.067616E-02
                  36.0000     5.953496E-03           4.017618E-02
                  36.2500     5.880817E-03           3.968572E-02
                  36.5000     5.809504E-03           3.920447E-02
                  36.7500     5.739529E-03           3.873226E-02
                  37.0000     5.670851E-03           3.826880E-02
                  37.2500     5.603443E-03           3.781391E-02
                  37.5000     5.537271E-03           3.736735E-02
                  37.7500     5.472303E-03           3.692893E-02
                  38.0000     5.408511E-03           3.649844E-02
                  38.2500     5.345865E-03           3.607569E-02
                  38.5000     5.284336E-03           3.566046E-02
                  38.7500     5.223899E-03           3.525262E-02
                  39.0000     5.164525E-03           3.485195E-02
                  39.2500     5.106191E-03           3.445828E-02
                  39.5000     5.048871E-03           3.407147E-02
                  39.7500     4.992542E-03           3.369134E-02
                  40.0000     4.937177E-03           3.331772E-02
                  40.2500     4.882758E-03           3.295049E-02
                  40.5000     4.829261E-03           3.258947E-02
                  40.7500     4.776665E-03           3.223454E-02
                  41.0000     4.724949E-03           3.188554E-02
                  41.2500     4.674095E-03           3.154235E-02
                  41.5000     4.624079E-03           3.120483E-02
                  41.7500     4.574886E-03           3.087286E-02
                  42.0000     4.526497E-03           3.054631E-02
                  42.2500     4.478892E-03           3.022506E-02
                  42.5000     4.432056E-03           2.990900E-02
                  42.7500     4.385972E-03           2.959800E-02
                  43.0000     4.340622E-03           2.929197E-02
                  43.2500     4.295991E-03           2.899078E-02
                  43.5000     4.252063E-03           2.869434E-02
                  43.7500     4.208824E-03           2.840255E-02
                  44.0000     4.166258E-03           2.811530E-02
                  44.2500     4.124351E-03           2.783250E-02
                  44.5000     4.083090E-03           2.755406E-02
                  44.7500     4.042460E-03           2.727987E-02
                  45.0000     4.002450E-03           2.700987E-02
                  45.2500     3.963045E-03           2.674395E-02
                  45.5000     3.924233E-03           2.648204E-02
                  45.7500     3.886003E-03           2.622405E-02
                  46.0000     3.848344E-03           2.596991E-02
                  46.2500     3.811240E-03           2.571953E-02
                  46.5000     3.774686E-03           2.547284E-02
                  46.7500     3.738663E-03           2.522975E-02
                  47.0000     3.703168E-03           2.499022E-02
                  47.2500     3.668189E-03           2.475416E-02
                  47.5000     3.633712E-03           2.452151E-02
                  47.7500     3.599731E-03           2.429219E-02
                  48.0000     3.566233E-03           2.406613E-02
                  48.2500     3.533212E-03           2.384330E-02
                  48.5000     3.500656E-03           2.362360E-02
                  48.7500     3.468558E-03           2.340699E-02
                  49.0000     3.436911E-03           2.319342E-02
                  49.2500     3.405702E-03           2.298281E-02
                  49.5000     3.374925E-03           2.277512E-02
                  49.7500     3.344572E-03           2.257029E-02
                  50.0000     3.314633E-03           2.236825E-02
