#        \hbar \omega(eV)           Re(1/eps)            -Im(1/eps)               Re(eps)                Im(eps)
     0.000000000000000E+00  0.233972607408700E+00  -.197142581059317E-14  0.427400459855205E+01  -.360122626041483E-13
     0.100000000000000E-01  0.233972108992946E+00  0.537645592092241E-04  0.427401347750597E+01  0.982127535035894E-03
     0.200000000000000E-01  0.233970613747666E+00  0.107535785315878E-03  0.427404011443510E+01  0.196440165205118E-02
     0.300000000000000E-01  0.233968121678890E+00  0.161320350499751E-03  0.427408450954003E+01  0.294696904089718E-02
     0.400000000000000E-01  0.233964632796954E+00  0.215124937520144E-03  0.427414666314919E+01  0.392997660744677E-02
     0.500000000000000E-01  0.233960147116934E+00  0.268956245015012E-03  0.427422657571008E+01  0.491357158179506E-02
     0.600000000000000E-01  0.233954664659248E+00  0.322820992816848E-03  0.427432424777693E+01  0.589790162678824E-02
     0.700000000000000E-01  0.233948185450442E+00  0.376725927288220E-03  0.427443967999475E+01  0.688311494694068E-02
     0.800000000000000E-01  0.233940709524155E+00  0.430677826681798E-03  0.427457287307969E+01  0.786936039783554E-02
     0.900000000000000E-01  0.233932236922262E+00  0.484683506529637E-03  0.427472382779565E+01  0.885678759610329E-02
     0.100000000000000E+00  0.233922767696213E+00  0.538749825066422E-03  0.427489254492712E+01  0.984554703007013E-02
     0.110000000000000E+00  0.233912301908561E+00  0.592883688691317E-03  0.427507902524795E+01  0.108357901711672E-01
     0.120000000000000E+00  0.233900839634686E+00  0.647092057472910E-03  0.427528326948621E+01  0.118276695861894E-01
     0.130000000000000E+00  0.233888380964738E+00  0.701381950701683E-03  0.427550527828473E+01  0.128213390504883E-01
     0.140000000000000E+00  0.233874926005770E+00  0.755760452494278E-03  0.427574505215740E+01  0.138169536621849E-01
     0.150000000000000E+00  0.233860474884118E+00  0.810234717453652E-03  0.427600259144084E+01  0.148146699574775E-01
     0.160000000000000E+00  0.233845027747993E+00  0.864811976389074E-03  0.427627789624147E+01  0.158146460271240E-01
     0.170000000000000E+00  0.233828584770317E+00  0.919499542099670E-03  0.427657096637768E+01  0.168170416341681E-01
     0.180000000000000E+00  0.233811146151815E+00  0.974304815225025E-03  0.427688180131680E+01  0.178220183329737E-01
     0.190000000000000E+00  0.233792712124370E+00  0.102923529016603E-02  0.427721040010670E+01  0.188297395896289E-01
     0.200000000000000E+00  0.233773282954639E+00  0.108429856107890E-02  0.427755676130198E+01  0.198403709037745E-01
     0.210000000000000E+00  0.233752858947975E+00  0.113950232794498E-02  0.427792088288395E+01  0.208540799318978E-01
     0.220000000000000E+00  0.233731440452645E+00  0.119485440271836E-02  0.427830276217466E+01  0.218710366121336E-01
     0.230000000000000E+00  0.233709027864366E+00  0.125036271555322E-02  0.427870239574422E+01  0.228914132905969E-01
     0.240000000000000E+00  0.233685621631180E+00  0.130603532111202E-02  0.427911977931144E+01  0.239153848492669E-01
     0.250000000000000E+00  0.233661222258684E+00  0.136188040495520E-02  0.427955490763695E+01  0.249431288354225E-01
     0.260000000000000E+00  0.233635830315632E+00  0.141790629001252E-02  0.428000777440902E+01  0.259748255926265E-01
     0.270000000000000E+00  0.233609446439931E+00  0.147412144313522E-02  0.428047837212093E+01  0.270106583932277E-01
     0.280000000000000E+00  0.233582071345064E+00  0.153053448172778E-02  0.428096669194007E+01  0.280508135723441E-01
     0.290000000000000E+00  0.233553705826934E+00  0.158715418045664E-02  0.428147272356796E+01  0.290954806632673E-01
     0.300000000000000E+00  0.233524350771195E+00  0.164398947803284E-02  0.428199645509071E+01  0.301448525342024E-01
     0.310000000000000E+00  0.233494007161070E+00  0.170104948406387E-02  0.428253787281929E+01  0.311991255262411E-01
     0.320000000000000E+00  0.233462676085673E+00  0.175834348596930E-02  0.428309696111952E+01  0.322584995924390E-01
     0.330000000000000E+00  0.233430358748913E+00  0.181588095595296E-02  0.428367370223021E+01  0.333231784378284E-01
     0.340000000000000E+00  0.233397056478960E+00  0.187367155802321E-02  0.428426807606986E+01  0.343933696601806E-01
     0.350000000000000E+00  0.233362770738330E+00  0.193172515505101E-02  0.428488006003052E+01  0.354692848912851E-01
     0.360000000000000E+00  0.233327503134635E+00  0.199005181585356E-02  0.428550962875822E+01  0.365511399384715E-01
     0.370000000000000E+00  0.233291255432012E+00  0.204866182228932E-02  0.428615675391950E+01  0.376391549260680E-01
     0.380000000000000E+00  0.233254029563291E+00  0.210756567634796E-02  0.428682140395276E+01  0.387335544364224E-01
     0.390000000000000E+00  0.233215827642932E+00  0.216677410721582E-02  0.428750354380396E+01  0.398345676500746E-01
     0.400000000000000E+00  0.233176651980782E+00  0.222629807829520E-02  0.428820313464555E+01  0.409424284845965E-01
     0.410000000000000E+00  0.233136505096699E+00  0.228614879415218E-02  0.428892013357775E+01  0.420573757315563E-01
     0.420000000000000E+00  0.233095389736084E+00  0.234633770736452E-02  0.428965449331124E+01  0.431796531909860E-01
     0.430000000000000E+00  0.233053308886378E+00  0.240687652523715E-02  0.429040616183011E+01  0.443095098026533E-01
     0.440000000000000E+00  0.233010265794582E+00  0.246777721634867E-02  0.429117508203409E+01  0.454471997733462E-01
     0.450000000000000E+00  0.232966263985853E+00  0.252905201688769E-02  0.429196119135881E+01  0.465929826992840E-01
     0.460000000000000E+00  0.232921307283219E+00  0.259071343673255E-02  0.429276442137308E+01  0.477471236826596E-01
     0.470000000000000E+00  0.232875399828510E+00  0.265277426522264E-02  0.429358469735177E+01  0.489098934411968E-01
     0.480000000000000E+00  0.232828546104523E+00  0.271524757656314E-02  0.429442193782321E+01  0.500815684094827E-01
     0.490000000000000E+00  0.232780750958525E+00  0.277814673479838E-02  0.429527605408971E+01  0.512624308306881E-01
     0.500000000000000E+00  0.232732019627137E+00  0.284148539828175E-02  0.429614694971979E+01  0.524527688371339E-01
     0.510000000000000E+00  0.232682357762680E+00  0.290527752356183E-02  0.429703452001098E+01  0.536528765179959E-01
     0.520000000000000E+00  0.232631771461050E+00  0.296953736859582E-02  0.429793865142139E+01  0.548630539722519E-01
     0.530000000000000E+00  0.232580267291189E+00  0.303427949519153E-02  0.429885922096924E+01  0.560836073447758E-01
     0.540000000000000E+00  0.232527852326235E+00  0.309951877056912E-02  0.429979609559819E+01  0.573148488432614E-01
     0.550000000000000E+00  0.232474534176422E+00  0.316527036792191E-02  0.430074913150760E+01  0.585570967334260E-01
     0.560000000000000E+00  0.232420321023787E+00  0.323154976584372E-02  0.430171817344613E+01  0.598106753096808E-01
     0.570000000000000E+00  0.232365221658790E+00  0.329837274647675E-02  0.430270305396716E+01  0.610759148381820E-01
     0.580000000000000E+00  0.232309245518883E+00  0.336575539221928E-02  0.430370359264482E+01  0.623531514688699E-01
     0.590000000000000E+00  0.232252402729118E+00  0.343371408081732E-02  0.430471959524932E+01  0.636427271127847E-01
     0.600000000000000E+00  0.232194704144860E+00  0.350226547864737E-02  0.430575085288035E+01  0.649449892805971E-01
     0.610000000000000E+00  0.232136161396645E+00  0.357142653197938E-02  0.430679714105755E+01  0.662602908779217E-01
     0.620000000000000E+00  0.232076786937269E+00  0.364121445598985E-02  0.430785821876685E+01  0.675889899525730E-01
     0.630000000000000E+00  0.232016594091130E+00  0.371164672127448E-02  0.430893382746241E+01  0.689314493885201E-01
     0.640000000000000E+00  0.231955597105865E+00  0.378274103758758E-02  0.431002369002308E+01  0.702880365408210E-01
     0.650000000000000E+00  0.231893811206317E+00  0.385451533451260E-02  0.431112750966360E+01  0.716591228053646E-01
     0.660000000000000E+00  0.231831252650837E+00  0.392698773874321E-02  0.431224496880022E+01  0.730450831167280E-01
     0.670000000000000E+00  0.231767938789912E+00  0.400017654762903E-02  0.431337572787151E+01  0.744462953669542E-01
     0.680000000000000E+00  0.231703888127089E+00  0.407410019861264E-02  0.431451942411515E+01  0.758631397374925E-01
     0.690000000000001E+00  0.231639120382163E+00  0.414877723415696E-02  0.431567567030207E+01  0.772959979359904E-01
     0.700000000000001E+00  0.231573656556528E+00  0.422422626173288E-02  0.431684405343015E+01  0.787452523290520E-01
     0.710000000000001E+00  0.231507519000591E+00  0.430046590840763E-02  0.431802413338031E+01  0.802112849614876E-01
     0.720000000000001E+00  0.231440731483099E+00  0.437751476954426E-02  0.431921544153840E+01  0.816944764519927E-01
     0.730000000000001E+00  0.231373319262184E+00  0.445539135109300E-02  0.432041747938767E+01  0.831952047546257E-01
     0.740000000000001E+00  0.231305309157900E+00  0.453411400492516E-02  0.432162971707728E+01  0.847138437748722E-01
     0.750000000000001E+00  0.231236729625921E+00  0.461370085663242E-02  0.432285159197397E+01  0.862507618285804E-01
     0.760000000000001E+00  0.231167610832079E+00  0.469416972518655E-02  0.432408250720470E+01  0.878063199315304E-01
     0.770000000000001E+00  0.231097984727290E+00  0.477553803383129E-02  0.432532183020038E+01  0.893808699070128E-01
     0.780000000000001E+00  0.231027885122352E+00  0.485782271155588E-02  0.432656889125198E+01  0.909747522984251E-01
     0.790000000000001E+00  0.230957347762038E+00  0.494104008448398E-02  0.432782298209229E+01  0.925882940736811E-01
     0.800000000000001E+00  0.230886410397758E+00  0.502520575650091E-02  0.432908335451891E+01  0.942218061081343E-01
     0.810000000000001E+00  0.230815112858013E+00  0.511033447843830E-02  0.433034921907617E+01  0.958755804327962E-01
     0.820000000000001E+00  0.230743497115691E+00  0.519644000514114E-02  0.433161974381599E+01  0.975498872349109E-01
     0.830000000000001E+00  0.230671607351174E+00  0.528353493975898E-02  0.433289405316089E+01  0.992449715985082E-01
     0.840000000000001E+00  0.230599490010045E+00  0.537163056463214E-02  0.433417122689469E+01  0.100961049973365E+00
     0.850000000000001E+00  0.230527193854069E+00  0.546073665818960E-02  0.433545029930999E+01  0.102698306362016E+00
     0.860000000000001E+00  0.230454770003934E+00  0.555086129733856E-02  0.433673025854445E+01  0.104456888216029E+00
     0.870000000000001E+00  0.230382271972086E+00  0.564201064491020E-02  0.433801004614161E+01  0.106236902034823E+00
     0.880000000000001E+00  0.230309755683823E+00  0.573418872183543E-02  0.433928855687514E+01  0.108038408662906E+00
     0.890000000000001E+00  0.230237279484604E+00  0.582739716386077E-02  0.434056463887941E+01  0.109861418284573E+00
     0.900000000000001E+00  0.230164904131381E+00  0.592163496278213E-02  0.434183709413271E+01  0.111705885118978E+00
     0.910000000000001E+00  0.230092692765554E+00  0.601689819237641E-02  0.434310467934250E+01  0.113571701823073E+00
     0.920000000000001E+00  0.230020710864978E+00  0.611317971945094E-02  0.434436610728649E+01  0.115458693615303E+00
     0.930000000000001E+00  0.229949026172296E+00  0.621046890071215E-02  0.434562004866503E+01  0.117366612139178E+00
     0.940000000000001E+00  0.229877708596685E+00  0.630875126648042E-02  0.434686513452422E+01  0.119295129093020E+00
     0.950000000000001E+00  0.229806830086024E+00  0.640800819265025E-02  0.434809995931013E+01  0.121243829660292E+00
     0.960000000000001E+00  0.229736464466334E+00  0.650821656271575E-02  0.434932308461643E+01  0.123212205783948E+00
     0.970000000000000E+00  0.229666687245344E+00  0.660934842215117E-02  0.435053304368786E+01  0.125199649338338E+00
     0.980000000000000E+00  0.229597575376979E+00  0.671137062795389E-02  0.435172834674075E+01  0.127205445263072E+00
     0.990000000000000E+00  0.229529206983658E+00  0.681424449672267E-02  0.435290748716011E+01  0.129228764735093E+00
     0.100000000000000E+01  0.229461661033400E+00  0.691792545524917E-02  0.435406894862791E+01  0.131268658467694E+00
     0.101000000000000E+01  0.229395016968973E+00  0.702236269824307E-02  0.435521121323205E+01  0.133324050238228E+00
     0.102000000000000E+01  0.229329354286634E+00  0.712749885847812E-02  0.435633277059635E+01  0.135393730759682E+00
     0.103000000000000E+01  0.229264752062437E+00  0.723326969532676E-02  0.435743212806221E+01  0.137476352024545E+00
     0.104000000000000E+01  0.229201288424682E+00  0.733960380832899E-02  0.435850782193796E+01  0.139570422262437E+00
     0.105000000000000E+01  0.229139039971744E+00  0.744642238309559E-02  0.435955842981692E+01  0.141674301665072E+00
     0.106000000000000E+01  0.229078081135393E+00  0.755363897745524E-02  0.436058258394480E+01  0.143786199042894E+00
     0.107000000000000E+01  0.229018483490733E+00  0.766115935628994E-02  0.436157898559515E+01  0.145904169586565E+00
     0.108000000000000E+01  0.228960315014994E+00  0.776888138393459E-02  0.436254642038676E+01  0.148026113912682E+00
     0.109000000000000E+01  0.228903639298806E+00  0.787669498331003E-02  0.436348377444760E+01  0.150149778575956E+00
     0.110000000000000E+01  0.228848514714928E+00  0.798448217107726E-02  0.436439005130073E+01  0.152272758228937E+00
     0.111000000000000E+01  0.228794993551058E+00  0.809211717800934E-02  0.436526438931415E+01  0.154392499604405E+00
     0.112000000000000E+01  0.228743121114963E+00  0.819946666343773E-02  0.436610607952326E+01  0.156506307484068E+00
     0.113000000000000E+01  0.228692934821898E+00  0.830639003200744E-02  0.436691458360048E+01  0.158611352799753E+00
     0.114000000000000E+01  0.228644463276008E+00  0.841273986004198E-02  0.436768955171334E+01  0.160704682989117E+00
     0.115000000000000E+01  0.228597725359105E+00  0.851836243754901E-02  0.436843083998045E+01  0.162783234696950E+00
     0.116000000000000E+01  0.228552729341763E+00  0.862309843027889E-02  0.436913852720749E+01  0.164843848875225E+00
     0.117000000000000E+01  0.228509472033104E+00  0.872678366427698E-02  0.436981293056092E+01  0.166883288290303E+00
     0.118000000000000E+01  0.228467937986753E+00  0.882925003306173E-02  0.437045461982156E+01  0.168898257394837E+00
     0.119000000000000E+01  0.228428098781308E+00  0.893032652493955E-02  0.437106442984970E+01  0.170885424465569E+00
     0.120000000000000E+01  0.228389912393992E+00  0.902984036508399E-02  0.437164347089522E+01  0.172841445847868E+00
     0.121000000000000E+01  0.228353322686167E+00  0.912761826392527E-02  0.437219313639560E+01  0.174762992084944E+00
     0.122000000000000E+01  0.228318259018712E+00  0.922348776019979E-02  0.437271510792803E+01  0.176646775646224E+00
     0.123000000000000E+01  0.228284636014065E+00  0.931727864380028E-02  0.437321135701604E+01  0.178489579907777E+00
     0.124000000000000E+01  0.228252353479970E+00  0.940882444045845E-02  0.437368414353686E+01  0.180288288979970E+00
     0.125000000000000E+01  0.228221296507467E+00  0.949796393740997E-02  0.437413601053527E+01  0.182039917926901E+00
     0.126000000000000E+01  0.228191335752734E+00  0.958454272666367E-02  0.437456977531710E+01  0.183741642880479E+00
     0.127000000000000E+01  0.228162327908781E+00  0.966841474045038E-02  0.437498851677441E+01  0.185390830522180E+00
     0.128000000000000E+01  0.228134116369071E+00  0.974944375197982E-02  0.437539555897876E+01  0.186985066389259E+00
     0.129000000000000E+01  0.228106532080780E+00  0.982750481388807E-02  0.437579445116761E+01  0.188522181461273E+00
     0.130000000000000E+01  0.228079394580938E+00  0.990248560678835E-02  0.437618894433926E+01  0.190000276498137E+00
     0.131000000000000E+01  0.228052513204117E+00  0.997428767119655E-02  0.437658296475908E+01  0.191417743632992E+00
     0.132000000000000E+01  0.228025688445937E+00  0.100428274977979E-01  0.437698058476201E+01  0.192773284771367E+00
     0.133000000000000E+01  0.227998713462527E+00  0.101080374535317E-01  0.437738599130918E+01  0.194065926411424E+00
     0.134000000000000E+01  0.227971375682437E+00  0.101698665242310E-01  0.437780345281777E+01  0.195295030576526E+00
     0.135000000000000E+01  0.227943458504479E+00  0.102282808584690E-01  0.437823728482954E+01  0.196460301638256E+00
     0.136000000000000E+01  0.227914743052648E+00  0.102832641016926E-01  0.437869181511344E+01  0.197561788902484E+00
     0.137000000000000E+01  0.227885009957867E+00  0.103348175145200E-01  0.437917134881033E+01  0.198599884929407E+00
     0.138000000000000E+01  0.227854041135706E+00  0.103829598740557E-01  0.437968013422154E+01  0.199575319657104E+00
     0.139000000000000E+01  0.227821621529599E+00  0.104277271620598E-01  0.438022232981978E+01  0.200489150493507E+00
     0.140000000000000E+01  0.227787540790331E+00  0.104691720486054E-01  0.438080197302085E+01  0.201342748630138E+00
     0.141000000000000E+01  0.227751594864608E+00  0.105073631843076E-01  0.438142295120003E+01  0.202137781909661E+00
     0.142000000000000E+01  0.227713587468359E+00  0.105423843181517E-01  0.438208897536996E+01  0.202876194645632E+00
     0.143000000000000E+01  0.227673331423789E+00  0.105743332612631E-01  0.438280355686165E+01  0.203560184845004E+00
     0.144000000000000E+01  0.227630649843064E+00  0.106033207195639E-01  0.438356998726743E+01  0.204192179320740E+00
     0.145000000000000E+01  0.227585377145672E+00  0.106294690200838E-01  0.438439132182056E+01  0.204774807202952E+00
     0.146000000000000E+01  0.227537359900760E+00  0.106529107567268E-01  0.438527036630172E+01  0.205310872362700E+00
     0.147000000000000E+01  0.227486457490037E+00  0.106737873815502E-01  0.438620966748109E+01  0.205803325253519E+00
     0.148000000000000E+01  0.227432542590910E+00  0.106922477671397E-01  0.438721150702948E+01  0.206255234653832E+00
     0.149000000000000E+01  0.227375501483321E+00  0.107084467645302E-01  0.438827789876459E+01  0.206669759760077E+00
     0.150000000000000E+01  0.227315234187181E+00  0.107225437794302E-01  0.438941058903942E+01  0.207050123038009E+00
     0.151000000000000E+01  0.227251654440198E+00  0.107347013873569E-01  0.439061106003266E+01  0.207399584190398E+00
     0.152000000000000E+01  0.227184689528346E+00  0.107450840057949E-01  0.439188053566289E+01  0.207721415545588E+00
     0.153000000000000E+01  0.227114279983070E+00  0.107538566387730E-01  0.439321998982280E+01  0.208018879115255E+00
     0.154000000000000E+01  0.227040379160677E+00  0.107611837064206E-01  0.439463015661276E+01  0.208295205513278E+00
     0.155000000000000E+01  0.226962952720121E+00  0.107672279692087E-01  0.439611154224773E+01  0.208553574872726E+00
     0.156000000000000E+01  0.226881978015763E+00  0.107721495538126E-01  0.439766443831312E+01  0.208797099845899E+00
     0.157000000000000E+01  0.226797443421511E+00  0.107761050848999E-01  0.439928893605521E+01  0.209028810724558E+00
     0.158000000000000E+01  0.226709347602303E+00  0.107792469247314E-01  0.440098494140816E+01  0.209251642674575E+00
     0.159000000000000E+01  0.226617698748042E+00  0.107817225202950E-01  0.440275219047980E+01  0.209468425041908E+00
     0.160000000000000E+01  0.226522513784074E+00  0.107836738558026E-01  0.440459026524347E+01  0.209681872655291E+00
     0.161000000000000E+01  0.226423817571034E+00  0.107852370067839E-01  0.440649860920996E+01  0.209894579025386E+00
     0.162000000000000E+01  0.226321642105574E+00  0.107865417907107E-01  0.440847654288126E+01  0.210109011320157E+00
     0.163000000000000E+01  0.226216025731987E+00  0.107877115080712E-01  0.441052327881734E+01  0.210327506981686E+00
     0.164000000000000E+01  0.226107012373401E+00  0.107888627670689E-01  0.441263793617397E+01  0.210552271839860E+00
     0.165000000000000E+01  0.225994650789695E+00  0.107901053846272E-01  0.441481955459788E+01  0.210785379573223E+00
     0.166000000000000E+01  0.225878993868018E+00  0.107915423561071E-01  0.441706710738950E+01  0.211028772365674E+00
