#        Frequency (eV)           Re(1/eps)            -Im(1/eps)               Re(eps)                Im(eps)
     0.000000000000000E+00  0.226458186167824E+00  0.414395720667019E-09  0.441582623672044E+01  0.808051820370049E-08
     0.100000000000000E-01  0.226457786569566E+00  0.113011572766442E-03  0.441583292898432E+01  0.220367880450453E-02
     0.200000000000000E-01  0.226456587763913E+00  0.226024328867153E-03  0.441585300604044E+01  0.440742405386249E-02
     0.300000000000000E-01  0.226454589725375E+00  0.339040280791674E-03  0.441588646849454E+01  0.661131836646885E-02
     0.400000000000000E-01  0.226451792411474E+00  0.452061027356156E-03  0.441593331735597E+01  0.881543630510505E-02
     0.500000000000000E-01  0.226448195762752E+00  0.565088168460471E-03  0.441599355403756E+01  0.110198524699166E-01
     0.600000000000000E-01  0.226443799702790E+00  0.678123305449840E-03  0.441606718035506E+01  0.132246415108801E-01
     0.700000000000000E-01  0.226438604138214E+00  0.791168041476808E-03  0.441615419852685E+01  0.154298781402815E-01
     0.800000000000000E-01  0.226432608958720E+00  0.904223981863641E-03  0.441625461117335E+01  0.176356371452083E-01
     0.900000000000000E-01  0.226425814037100E+00  0.101729273446521E-02  0.441636842131627E+01  0.198419934000568E-01
     0.100000000000000E+00  0.226418219229265E+00  0.113037591003245E-02  0.441649563237789E+01  0.220490218790584E-01
     0.110000000000000E+00  0.226409824374279E+00  0.124347512257648E-02  0.441663624818017E+01  0.242567976688271E-01
     0.120000000000000E+00  0.226400629294388E+00  0.135659198973341E-02  0.441679027294379E+01  0.264653959809311E-01
     0.130000000000000E+00  0.226390633795071E+00  0.146972813312996E-02  0.441695771128692E+01  0.286748921644878E-01
     0.140000000000000E+00  0.226379837665069E+00  0.158288517874990E-02  0.441713856822413E+01  0.308853617187897E-01
     0.150000000000000E+00  0.226368240676444E+00  0.169606475730141E-02  0.441733284916497E+01  0.330968803059579E-01
     0.160000000000000E+00  0.226355842584622E+00  0.180926850458532E-02  0.441754055991253E+01  0.353095237636288E-01
     0.170000000000000E+00  0.226342643128453E+00  0.192249806186445E-02  0.441776170666189E+01  0.375233681176750E-01
     0.180000000000000E+00  0.226328642030274E+00  0.203575507623390E-02  0.441799629599834E+01  0.397384895949589E-01
     0.190000000000000E+00  0.226313838995966E+00  0.214904120099243E-02  0.441824433489564E+01  0.419549646361280E-01
     0.200000000000000E+00  0.226298233715035E+00  0.226235809601489E-02  0.441850583071390E+01  0.441728699084427E-01
     0.210000000000000E+00  0.226281825860676E+00  0.237570742812583E-02  0.441878079119765E+01  0.463922823186496E-01
     0.220000000000000E+00  0.226264615089862E+00  0.248909087147414E-02  0.441906922447347E+01  0.486132790258907E-01
     0.230000000000000E+00  0.226246601043419E+00  0.260251010790884E-02  0.441937113904771E+01  0.508359374546582E-01
     0.240000000000000E+00  0.226227783346132E+00  0.271596682735597E-02  0.441968654380378E+01  0.530603353077847E-01
     0.250000000000000E+00  0.226208161606824E+00  0.282946272819651E-02  0.442001544799967E+01  0.552865505794845E-01
     0.260000000000000E+00  0.226187735418468E+00  0.294299951764544E-02  0.442035786126498E+01  0.575146615684314E-01
     0.270000000000000E+00  0.226166504358296E+00  0.305657891213173E-02  0.442071379359793E+01  0.597447468908792E-01
     0.280000000000000E+00  0.226144467987906E+00  0.317020263767934E-02  0.442108325536223E+01  0.619768854938289E-01
     0.290000000000000E+00  0.226121625853389E+00  0.328387243028908E-02  0.442146625728375E+01  0.642111566682330E-01
     0.300000000000000E+00  0.226097977485452E+00  0.339759003632129E-02  0.442186281044694E+01  0.664476400622419E-01
     0.310000000000000E+00  0.226073522399551E+00  0.351135721287933E-02  0.442227292629121E+01  0.686864156944920E-01
     0.320000000000000E+00  0.226048260096034E+00  0.362517572819362E-02  0.442269661660708E+01  0.709275639674316E-01
     0.330000000000000E+00  0.226022190060288E+00  0.373904736200621E-02  0.442313389353197E+01  0.731711656806777E-01
     0.340000000000000E+00  0.225995311762893E+00  0.385297390595584E-02  0.442358476954614E+01  0.754173020444199E-01
     0.350000000000000E+00  0.225967624659784E+00  0.396695716396311E-02  0.442404925746807E+01  0.776660546928432E-01
     0.360000000000000E+00  0.225939128192422E+00  0.408099895261592E-02  0.442452737044988E+01  0.799175056975902E-01
     0.370000000000000E+00  0.225909821787965E+00  0.419510110155471E-02  0.442501912197256E+01  0.821717375812506E-01
     0.380000000000000E+00  0.225879704859468E+00  0.430926545385751E-02  0.442552452584063E+01  0.844288333308612E-01
     0.390000000000000E+00  0.225848776806067E+00  0.442349386642452E-02  0.442604359617703E+01  0.866888764114426E-01
     0.400000000000000E+00  0.225817037013176E+00  0.453778821036213E-02  0.442657634741766E+01  0.889519507795492E-01
     0.410000000000000E+00  0.225784484852717E+00  0.465215037136586E-02  0.442712279430534E+01  0.912181408968148E-01
     0.420000000000000E+00  0.225751119683321E+00  0.476658225010232E-02  0.442768295188409E+01  0.934875317435276E-01
     0.430000000000000E+00  0.225716940850565E+00  0.488108576258971E-02  0.442825683549283E+01  0.957602088321964E-01
     0.440000000000000E+00  0.225681947687215E+00  0.499566284057667E-02  0.442884446075878E+01  0.980362582211082E-01
     0.450000000000000E+00  0.225646139513463E+00  0.511031543191909E-02  0.442944584359092E+01  0.100315766527891E+00
     0.460000000000000E+00  0.225609515637192E+00  0.522504550095472E-02  0.443006100017292E+01  0.102598820943050E+00
     0.470000000000000E+00  0.225572075354243E+00  0.533985502887517E-02  0.443068994695585E+01  0.104885509243482E+00
     0.480000000000000E+00  0.225533817948684E+00  0.545474601409484E-02  0.443133270065081E+01  0.107175919805973E+00
     0.490000000000000E+00  0.225494742693104E+00  0.556972047261672E-02  0.443198927822115E+01  0.109470141620650E+00
     0.500000000000000E+00  0.225454848848906E+00  0.568478043839431E-02  0.443265969687437E+01  0.111768264304387E+00
     0.510000000000000E+00  0.225414135666615E+00  0.579992796368966E-02  0.443334397405386E+01  0.114070378114172E+00
     0.520000000000000E+00  0.225372602386195E+00  0.591516511942673E-02  0.443404212743032E+01  0.116376573960398E+00
     0.530000000000000E+00  0.225330248237373E+00  0.603049399554001E-02  0.443475417489296E+01  0.118686943420108E+00
     0.540000000000000E+00  0.225287072439976E+00  0.614591670131770E-02  0.443548013454038E+01  0.121001578750141E+00
     0.550000000000000E+00  0.225243074204285E+00  0.626143536573913E-02  0.443622002467107E+01  0.123320572900204E+00
     0.560000000000000E+00  0.225198252731387E+00  0.637705213780595E-02  0.443697386377375E+01  0.125644019525840E+00
     0.570000000000000E+00  0.225152607213543E+00  0.649276918686656E-02  0.443774167051752E+01  0.127972013001308E+00
     0.580000000000000E+00  0.225106136834570E+00  0.660858870293331E-02  0.443852346374144E+01  0.130304648432319E+00
     0.590000000000000E+00  0.225058840770227E+00  0.672451289699211E-02  0.443931926244410E+01  0.132642021668673E+00
     0.600000000000000E+00  0.225010718188611E+00  0.684054400130362E-02  0.444012908577279E+01  0.134984229316744E+00
     0.610000000000000E+00  0.224961768250575E+00  0.695668426969588E-02  0.444095295301233E+01  0.137331368751816E+00
     0.620000000000000E+00  0.224911990110138E+00  0.707293597784760E-02  0.444179088357377E+01  0.139683538130270E+00
     0.630000000000000E+00  0.224861382914912E+00  0.718930142356167E-02  0.444264289698277E+01  0.142040836401599E+00
     0.640000000000000E+00  0.224809945806546E+00  0.730578292702837E-02  0.444350901286754E+01  0.144403363320232E+00
     0.650000000000000E+00  0.224757677921173E+00  0.742238283107765E-02  0.444438925094671E+01  0.146771219457172E+00
     0.660000000000000E+00  0.224704578389861E+00  0.753910350142016E-02  0.444528363101690E+01  0.149144506211438E+00
     0.670000000000000E+00  0.224650646339075E+00  0.765594732687606E-02  0.444619217294006E+01  0.151523325821284E+00
     0.680000000000000E+00  0.224595880891164E+00  0.777291671959169E-02  0.444711489663018E+01  0.153907781375174E+00
     0.690000000000001E+00  0.224540281164822E+00  0.789001411524299E-02  0.444805182204056E+01  0.156297976822568E+00
     0.700000000000001E+00  0.224483846275598E+00  0.800724197322533E-02  0.444900296914980E+01  0.158694016984387E+00
     0.710000000000001E+00  0.224426575336369E+00  0.812460277682947E-02  0.444996835794863E+01  0.161096007563298E+00
     0.720000000000001E+00  0.224368467457863E+00  0.824209903340285E-02  0.445094800842553E+01  0.163504055153650E+00
     0.730000000000001E+00  0.224309521749152E+00  0.835973327449566E-02  0.445194194055290E+01  0.165918267251192E+00
     0.740000000000001E+00  0.224249737318178E+00  0.847750805599153E-02  0.445295017427258E+01  0.168338752262452E+00
     0.750000000000001E+00  0.224189113272263E+00  0.859542595822209E-02  0.445397272948132E+01  0.170765619513843E+00
     0.760000000000001E+00  0.224127648718634E+00  0.871348958606496E-02  0.445500962601623E+01  0.173198979260448E+00
     0.770000000000001E+00  0.224065342764958E+00  0.883170156902501E-02  0.445606088363958E+01  0.175638942694468E+00
     0.780000000000001E+00  0.224002194519861E+00  0.895006456129811E-02  0.445712652202412E+01  0.178085621953374E+00
     0.790000000000001E+00  0.223938203093472E+00  0.906858124181714E-02  0.445820656073762E+01  0.180539130127681E+00
     0.800000000000001E+00  0.223873367597947E+00  0.918725431428018E-02  0.445930101922778E+01  0.182999581268416E+00
     0.810000000000001E+00  0.223807687148012E+00  0.930608650716011E-02  0.446040991680668E+01  0.185467090394202E+00
     0.820000000000001E+00  0.223741160861496E+00  0.942508057369556E-02  0.446153327263533E+01  0.187941773498004E+00
     0.830000000000001E+00  0.223673787859861E+00  0.954423929186312E-02  0.446267110570816E+01  0.190423747553504E+00
     0.840000000000001E+00  0.223605567268739E+00  0.966356546433018E-02  0.446382343483728E+01  0.192913130521111E+00
     0.850000000000001E+00  0.223536498218460E+00  0.978306191838885E-02  0.446499027863692E+01  0.195410041353604E+00
     0.860000000000001E+00  0.223466579844582E+00  0.990273150587005E-02  0.446617165550758E+01  0.197914600001388E+00
     0.870000000000001E+00  0.223395811288409E+00  0.100225771030385E-01  0.446736758362048E+01  0.200426927417392E+00
     0.880000000000001E+00  0.223324191697502E+00  0.101426016104684E-01  0.446857808090188E+01  0.202947145561597E+00
     0.890000000000001E+00  0.223251720226200E+00  0.102628079528986E-01  0.446980316501737E+01  0.205475377405168E+00
     0.900000000000001E+00  0.223178396036112E+00  0.103831990790700E-01  0.447104285335637E+01  0.208011746934236E+00
     0.910000000000001E+00  0.223104218296615E+00  0.105037779615427E-01  0.447229716301659E+01  0.210556379153303E+00
     0.920000000000001E+00  0.223029186185336E+00  0.106245475964940E-01  0.447356611078869E+01  0.213109400088291E+00
     0.930000000000001E+00  0.222953298888623E+00  0.107455110034985E-01  0.447484971314100E+01  0.215670936789230E+00
     0.940000000000001E+00  0.222876555602011E+00  0.108666712252891E-01  0.447614798620437E+01  0.218241117332594E+00
     0.950000000000001E+00  0.222798955530664E+00  0.109880313275003E-01  0.447746094575725E+01  0.220820070823306E+00
     0.960000000000001E+00  0.222720497889810E+00  0.111095943983935E-01  0.447878860721099E+01  0.223407927396414E+00
     0.970000000000000E+00  0.222641181905164E+00  0.112313635485661E-01  0.448013098559519E+01  0.226004818218439E+00
     0.980000000000000E+00  0.222561006813330E+00  0.113533419106428E-01  0.448148809554339E+01  0.228610875488420E+00
     0.990000000000000E+00  0.222479971862182E+00  0.114755326389527E-01  0.448285995127906E+01  0.231226232438684E+00
     0.100000000000000E+01  0.222398076311239E+00  0.115979389091900E-01  0.448424656660175E+01  0.233851023335331E+00
     0.101000000000000E+01  0.222315319432005E+00  0.117205639180608E-01  0.448564795487364E+01  0.236485383478465E+00
     0.102000000000000E+01  0.222231700508310E+00  0.118434108829165E-01  0.448706412900624E+01  0.239129449202184E+00
     0.103000000000000E+01  0.222147218836608E+00  0.119664830413750E-01  0.448849510144753E+01  0.241783357874366E+00
     0.104000000000000E+01  0.222061873726266E+00  0.120897836509295E-01  0.448994088416959E+01  0.244447247896264E+00
     0.105000000000000E+01  0.221975664499835E+00  0.122133159885472E-01  0.449140148865610E+01  0.247121258701893E+00
     0.106000000000000E+01  0.221888590493277E+00  0.123370833502591E-01  0.449287692589087E+01  0.249805530757342E+00
     0.107000000000000E+01  0.221800651056189E+00  0.124610890507403E-01  0.449436720634627E+01  0.252500205559902E+00
     0.108000000000000E+01  0.221711845552000E+00  0.125853364228847E-01  0.449587233997214E+01  0.255205425637128E+00
     0.109000000000000E+01  0.221622173358129E+00  0.127098288173725E-01  0.449739233618528E+01  0.257921334545840E+00
     0.110000000000000E+01  0.221531633866125E+00  0.128345696022345E-01  0.449892720385930E+01  0.260648076871101E+00
     0.111000000000000E+01  0.221440226481789E+00  0.129595621624122E-01  0.450047695131474E+01  0.263385798225163E+00
     0.112000000000000E+01  0.221347950625253E+00  0.130848098993170E-01  0.450204158630976E+01  0.266134645246461E+00
     0.113000000000000E+01  0.221254805731046E+00  0.132103162303891E-01  0.450362111603131E+01  0.268894765598681E+00
     0.114000000000000E+01  0.221160791248123E+00  0.133360845886567E-01  0.450521554708663E+01  0.271666307969895E+00
     0.115000000000000E+01  0.221065906639871E+00  0.134621184222994E-01  0.450682488549524E+01  0.274449422071852E+00
     0.116000000000000E+01  0.220970151384087E+00  0.135884211942147E-01  0.450844913668134E+01  0.277244258639412E+00
     0.117000000000000E+01  0.220873524972930E+00  0.137149963815911E-01  0.451008830546662E+01  0.280050969430183E+00
     0.118000000000000E+01  0.220776026912841E+00  0.138418474754877E-01  0.451174239606369E+01  0.282869707224415E+00
     0.119000000000000E+01  0.220677656724437E+00  0.139689779804240E-01  0.451341141206961E+01  0.285700625825130E+00
     0.120000000000000E+01  0.220578413942386E+00  0.140963914139791E-01  0.451509535646004E+01  0.288543880058565E+00
     0.121000000000000E+01  0.220478298115235E+00  0.142240913064038E-01  0.451679423158388E+01  0.291399625774994E+00
     0.122000000000000E+01  0.220377308805244E+00  0.143520812002460E-01  0.451850803915791E+01  0.294268019849852E+00
     0.123000000000000E+01  0.220275445588155E+00  0.144803646499913E-01  0.452023678026234E+01  0.297149220185351E+00
     0.124000000000000E+01  0.220172708052976E+00  0.146089452217207E-01  0.452198045533613E+01  0.300043385712466E+00
     0.125000000000000E+01  0.220069095801704E+00  0.147378264927866E-01  0.452373906417320E+01  0.302950676393470E+00
     0.126000000000000E+01  0.219964608449056E+00  0.148670120515077E-01  0.452551260591834E+01  0.305871253224903E+00
     0.127000000000000E+01  0.219859245622156E+00  0.149965054968861E-01  0.452730107906401E+01  0.308805278241161E+00
     0.128000000000000E+01  0.219753006960209E+00  0.151263104383464E-01  0.452910448144698E+01  0.311752914518608E+00
     0.129000000000000E+01  0.219645892114151E+00  0.152564304954989E-01  0.453092281024534E+01  0.314714326180312E+00
     0.130000000000000E+01  0.219537900746287E+00  0.153868692979274E-01  0.453275606197562E+01  0.317689678401402E+00
     0.131000000000000E+01  0.219429032529909E+00  0.155176304850042E-01  0.453460423249014E+01  0.320679137415085E+00
     0.132000000000000E+01  0.219319287148882E+00  0.156487177057318E-01  0.453646731697456E+01  0.323682870519376E+00
     0.133000000000000E+01  0.219208664297241E+00  0.157801346186135E-01  0.453834530994525E+01  0.326701046084475E+00
     0.134000000000000E+01  0.219097163678752E+00  0.159118848915537E-01  0.454023820524702E+01  0.329733833560947E+00
     0.135000000000000E+01  0.218984785006473E+00  0.160439722017885E-01  0.454214599605062E+01  0.332781403488591E+00
     0.136000000000000E+01  0.218871528002300E+00  0.161764002358470E-01  0.454406867485036E+01  0.335843927506102E+00
     0.137000000000000E+01  0.218757392396507E+00  0.163091726895455E-01  0.454600623346142E+01  0.338921578361511E+00
     0.138000000000000E+01  0.218642377927273E+00  0.164422932680141E-01  0.454795866301745E+01  0.342014529923434E+00
     0.139000000000000E+01  0.218526484340204E+00  0.165757656857561E-01  0.454992595396762E+01  0.345122957193122E+00
     0.140000000000000E+01  0.218409711387863E+00  0.167095936667413E-01  0.455190809607351E+01  0.348247036317292E+00
     0.141000000000000E+01  0.218292058829277E+00  0.168437809445334E-01  0.455390507840606E+01  0.351386944601863E+00
     0.142000000000000E+01  0.218173526429469E+00  0.169783312624513E-01  0.455591688934166E+01  0.354542860526416E+00
     0.143000000000000E+01  0.218054113958960E+00  0.171132483737653E-01  0.455794351655859E+01  0.357714963759598E+00
     0.144000000000000E+01  0.217933821193309E+00  0.172485360419272E-01  0.455998494703233E+01  0.360903435175244E+00
     0.145000000000000E+01  0.217812647912629E+00  0.173841980408350E-01  0.456204116703099E+01  0.364108456869416E+00
     0.146000000000000E+01  0.217690593901130E+00  0.175202381551317E-01  0.456411216210984E+01  0.367330212178187E+00
     0.147000000000000E+01  0.217567658946656E+00  0.176566601805386E-01  0.456619791710568E+01  0.370568885696315E+00
     0.148000000000000E+01  0.217443842840241E+00  0.177934679242211E-01  0.456829841613025E+01  0.373824663296654E+00
     0.149000000000000E+01  0.217319145375674E+00  0.179306652051890E-01  0.457041364256328E+01  0.377097732150404E+00
     0.150000000000000E+01  0.217193566349085E+00  0.180682558547282E-01  0.457254357904459E+01  0.380388280748078E+00
     0.151000000000000E+01  0.217067105558530E+00  0.182062437168648E-01  0.457468820746576E+01  0.383696498921305E+00
     0.152000000000000E+01  0.216939762803608E+00  0.183446326488610E-01  0.457684750896082E+01  0.387022577865307E+00
     0.153000000000000E+01  0.216811537885097E+00  0.184834265217403E-01  0.457902146389611E+01  0.390366710162122E+00
     0.154000000000000E+01  0.216682430604598E+00  0.186226292208430E-01  0.458121005185939E+01  0.393729089804505E+00
     0.155000000000000E+01  0.216552440764211E+00  0.187622446464100E-01  0.458341325164801E+01  0.397109912220531E+00
     0.156000000000000E+01  0.216421568166230E+00  0.189022767141938E-01  0.458563104125605E+01  0.400509374298783E+00
     0.157000000000000E+01  0.216289812612867E+00  0.190427293560964E-01  0.458786339786056E+01  0.403927674414205E+00
     0.158000000000000E+01  0.216157173905994E+00  0.191836065208319E-01  0.459011029780681E+01  0.407365012454499E+00
     0.159000000000000E+01  0.216023651846919E+00  0.193249121746128E-01  0.459237171659229E+01  0.410821589847073E+00
     0.160000000000000E+01  0.215889246236187E+00  0.194666503018598E-01  0.459464762884988E+01  0.414297609586529E+00
     0.161000000000000E+01  0.215753956873409E+00  0.196088249059318E-01  0.459693800832965E+01  0.417793276262589E+00
     0.162000000000000E+01  0.215617783557128E+00  0.197514400098763E-01  0.459924282787964E+01  0.421308796088473E+00
     0.163000000000000E+01  0.215480726084698E+00  0.198944996571982E-01  0.460156205942551E+01  0.424844376929719E+00
     0.164000000000000E+01  0.215342784252223E+00  0.200380079126453E-01  0.460389567394870E+01  0.428400228333284E+00
     0.165000000000000E+01  0.215203957854500E+00  0.201819688630092E-01  0.460624364146367E+01  0.431976561557044E+00
     0.166000000000000E+01  0.215064246685012E+00  0.203263866179406E-01  0.460860593099369E+01  0.435573589599541E+00
