#        Frequency (eV)           Re(1/eps)            -Im(1/eps)               Re(eps)                Im(eps)
     0.000000000000000E+00  0.222381178785971E+00  -.164189116755849E-09  0.449678343041090E+01  -.332007818158071E-08
     0.100000000000000E-01  0.222380854519342E+00  0.140934459283140E-03  0.449678818133484E+01  0.284985149561120E-02
     0.200000000000000E-01  0.222379881746239E+00  0.281872132897021E-03  0.449680243342891E+01  0.569981098638011E-02
     0.300000000000000E-01  0.222378260544612E+00  0.422815905718713E-03  0.449682618473371E+01  0.854997980243839E-02
     0.400000000000000E-01  0.222375991044364E+00  0.563768824665553E-03  0.449685943198397E+01  0.114004625443133E-01
     0.500000000000000E-01  0.222373073427339E+00  0.704733933429566E-03  0.449690217060892E+01  0.142513637379604E-01
     0.600000000000000E-01  0.222369507927302E+00  0.845714271398582E-03  0.449695439473288E+01  0.171027878098174E-01
     0.700000000000000E-01  0.222365294829920E+00  0.986712872574117E-03  0.449701609717595E+01  0.199548390617809E-01
     0.800000000000000E-01  0.222360434472720E+00  0.112773276448524E-02  0.449708726945516E+01  0.228076216460902E-01
     0.900000000000000E-01  0.222354927245060E+00  0.126877696709757E-02  0.449716790178545E+01  0.256612395400950E-01
     0.100000000000000E+00  0.222348773588078E+00  0.140984849171676E-02  0.449725798308114E+01  0.285157965208947E-01
     0.110000000000000E+00  0.222341973994647E+00  0.155095033988549E-02  0.449735750095738E+01  0.313713961398236E-01
     0.120000000000000E+00  0.222334529009309E+00  0.169208550227341E-02  0.449746644173203E+01  0.342281416967730E-01
     0.130000000000000E+00  0.222326439228215E+00  0.183325695755913E-02  0.449758479042764E+01  0.370861362143258E-01
     0.140000000000000E+00  0.222317705299045E+00  0.197446767130366E-02  0.449771253077368E+01  0.399454824116887E-01
     0.150000000000000E+00  0.222308327920927E+00  0.211572059481438E-02  0.449784964520902E+01  0.428062826784073E-01
     0.160000000000000E+00  0.222298307844340E+00  0.225701866399910E-02  0.449799611488481E+01  0.456686390478476E-01
     0.170000000000000E+00  0.222287645871017E+00  0.239836479820931E-02  0.449815191966744E+01  0.485326531704235E-01
     0.180000000000000E+00  0.222276342853820E+00  0.253976189907197E-02  0.449831703814206E+01  0.513984262865658E-01
     0.190000000000000E+00  0.222264399696628E+00  0.268121284930944E-02  0.449849144761604E+01  0.542660591994019E-01
     0.200000000000000E+00  0.222251817354185E+00  0.282272051154652E-02  0.449867512412328E+01  0.571356522471550E-01
     0.210000000000000E+00  0.222238596831954E+00  0.296428772710448E-02  0.449886804242853E+01  0.600073052752282E-01
     0.220000000000000E+00  0.222224739185957E+00  0.310591731478103E-02  0.449907017603209E+01  0.628811176079716E-01
     0.230000000000000E+00  0.222210245522587E+00  0.324761206961617E-02  0.449928149717515E+01  0.657571880201243E-01
     0.240000000000000E+00  0.222195116998411E+00  0.338937476164301E-02  0.449950197684546E+01  0.686356147079140E-01
     0.250000000000000E+00  0.222179354819966E+00  0.353120813462337E-02  0.449973158478331E+01  0.715164952598045E-01
     0.260000000000000E+00  0.222162960243514E+00  0.367311490476757E-02  0.449997028948835E+01  0.743999266268937E-01
     0.270000000000000E+00  0.222145934574799E+00  0.381509775943812E-02  0.450021805822659E+01  0.772860050929372E-01
     0.280000000000000E+00  0.222128279168784E+00  0.395715935583687E-02  0.450047485703798E+01  0.801748262440022E-01
     0.290000000000000E+00  0.222109995429339E+00  0.409930231967534E-02  0.450074065074498E+01  0.830664849377549E-01
     0.300000000000000E+00  0.222091084808939E+00  0.424152924382800E-02  0.450101540296122E+01  0.859610752723552E-01
     0.310000000000000E+00  0.222071548808329E+00  0.438384268696823E-02  0.450129907610095E+01  0.888586905549690E-01
     0.320000000000000E+00  0.222051388976145E+00  0.452624517218685E-02  0.450159163138948E+01  0.917594232699094E-01
     0.330000000000000E+00  0.222030606908529E+00  0.466873918559295E-02  0.450189302887399E+01  0.946633650463817E-01
     0.340000000000000E+00  0.222009204248719E+00  0.481132717489729E-02  0.450220322743506E+01  0.975706066258450E-01
     0.350000000000000E+00  0.221987182686577E+00  0.495401154797785E-02  0.450252218479944E+01  0.100481237829015E+00
     0.360000000000000E+00  0.221964543958133E+00  0.509679467142798E-02  0.450284985755301E+01  0.103395347522464E+00
     0.370000000000000E+00  0.221941289845052E+00  0.523967886908691E-02  0.450318620115515E+01  0.106313023584883E+00
     0.380000000000000E+00  0.221917422174096E+00  0.538266642055326E-02  0.450353116995372E+01  0.109234352872969E+00
     0.390000000000000E+00  0.221892942816540E+00  0.552575955968129E-02  0.450388471720099E+01  0.112159421186967E+00
     0.400000000000000E+00  0.221867853687547E+00  0.566896047306074E-02  0.450424679507073E+01  0.115088313235888E+00
     0.410000000000000E+00  0.221842156745503E+00  0.581227129848025E-02  0.450461735467626E+01  0.118021112602403E+00
     0.420000000000000E+00  0.221815853991328E+00  0.595569412337517E-02  0.450499634608937E+01  0.120957901707423E+00
     0.430000000000000E+00  0.221788947467714E+00  0.609923098326014E-02  0.450538371836071E+01  0.123898761774419E+00
     0.440000000000000E+00  0.221761439258352E+00  0.624288386014721E-02  0.450577941954098E+01  0.126843772793455E+00
     0.450000000000000E+00  0.221733331487081E+00  0.638665468095029E-02  0.450618339670365E+01  0.129793013485005E+00
     0.460000000000000E+00  0.221704626317017E+00  0.653054531587655E-02  0.450659559596863E+01  0.132746561263543E+00
     0.470000000000000E+00  0.221675325949611E+00  0.667455757680605E-02  0.450701596252746E+01  0.135704492200957E+00
     0.480000000000000E+00  0.221645432623660E+00  0.681869321566043E-02  0.450744444066975E+01  0.138666880989815E+00
     0.490000000000000E+00  0.221614948614274E+00  0.696295392276177E-02  0.450788097381098E+01  0.141633800906509E+00
     0.500000000000000E+00  0.221583876231779E+00  0.710734132518312E-02  0.450832550452166E+01  0.144605323774314E+00
     0.510000000000000E+00  0.221552217820557E+00  0.725185698509184E-02  0.450877797455822E+01  0.147581519926426E+00
     0.520000000000000E+00  0.221519975757839E+00  0.739650239808724E-02  0.450923832489515E+01  0.150562458168983E+00
     0.530000000000000E+00  0.221487152452433E+00  0.754127899153420E-02  0.450970649575869E+01  0.153548205744142E+00
     0.540000000000000E+00  0.221453750343379E+00  0.768618812289465E-02  0.451018242666245E+01  0.156538828293262E+00
     0.550000000000000E+00  0.221419771898551E+00  0.783123107805822E-02  0.451066605644425E+01  0.159534389820224E+00
     0.560000000000000E+00  0.221385219613187E+00  0.797640906967460E-02  0.451115732330495E+01  0.162534952654966E+00
     0.570000000000000E+00  0.221350096008353E+00  0.812172323548938E-02  0.451165616484887E+01  0.165540577417275E+00
     0.580000000000000E+00  0.221314403629331E+00  0.826717463668562E-02  0.451216251812599E+01  0.168551322980910E+00
     0.590000000000000E+00  0.221278145043940E+00  0.841276425623355E-02  0.451267631967603E+01  0.171567246438113E+00
     0.600000000000000E+00  0.221241322840783E+00  0.855849299725091E-02  0.451319750557425E+01  0.174588403064579E+00
     0.610000000000000E+00  0.221203939627417E+00  0.870436168137635E-02  0.451372601147923E+01  0.177614846284961E+00
     0.620000000000000E+00  0.221165998028444E+00  0.885037104715906E-02  0.451426177268250E+01  0.180646627638973E+00
     0.630000000000000E+00  0.221127500683528E+00  0.899652174846683E-02  0.451480472416013E+01  0.183683796748186E+00
     0.640000000000000E+00  0.221088450245327E+00  0.914281435291640E-02  0.451535480062634E+01  0.186726401283592E+00
     0.650000000000000E+00  0.221048849377352E+00  0.928924934032857E-02  0.451591193658895E+01  0.189774486934012E+00
     0.660000000000000E+00  0.221008700751735E+00  0.943582710121179E-02  0.451647606640696E+01  0.192828097375450E+00
     0.670000000000000E+00  0.220968007046916E+00  0.958254793527745E-02  0.451704712435022E+01  0.195887274241483E+00
     0.680000000000000E+00  0.220926770945246E+00  0.972941204999057E-02  0.451762504466103E+01  0.198952057094781E+00
     0.690000000000001E+00  0.220884995130506E+00  0.987641955915958E-02  0.451820976161783E+01  0.202022483399847E+00
     0.700000000000001E+00  0.220842682285341E+00  0.100235704815690E-01  0.451880120960101E+01  0.205098588497092E+00
     0.710000000000001E+00  0.220799835088596E+00  0.101708647396592E-01  0.451939932316079E+01  0.208180405578345E+00
     0.720000000000001E+00  0.220756456212586E+00  0.103183021582567E-01  0.452000403708706E+01  0.211267965663899E+00
     0.730000000000001E+00  0.220712548320250E+00  0.104658824633606E-01  0.452061528648156E+01  0.214361297581222E+00
     0.740000000000001E+00  0.220668114062246E+00  0.106136052809875E-01  0.452123300683182E+01  0.217460427945423E+00
     0.750000000000001E+00  0.220623156073936E+00  0.107614701360819E-01  0.452185713408733E+01  0.220565381141598E+00
     0.760000000000001E+00  0.220577676972299E+00  0.109094764514940E-01  0.452248760473774E+01  0.223676179309186E+00
     0.770000000000001E+00  0.220531679352743E+00  0.110576235470314E-01  0.452312435589298E+01  0.226792842328444E+00
     0.780000000000001E+00  0.220485165785843E+00  0.112059106385898E-01  0.452376732536542E+01  0.229915387809152E+00
     0.790000000000001E+00  0.220438138813987E+00  0.113543368373651E-01  0.452441645175397E+01  0.233043831081698E+00
     0.800000000000001E+00  0.220390600947934E+00  0.115029011491551E-01  0.452507167453010E+01  0.236178185190657E+00
     0.810000000000001E+00  0.220342554663300E+00  0.116516024737535E-01  0.452573293412561E+01  0.239318460890971E+00
     0.820000000000001E+00  0.220294002396951E+00  0.118004396044422E-01  0.452640017202222E+01  0.242464666646885E+00
     0.830000000000001E+00  0.220244946543321E+00  0.119494112275872E-01  0.452707333084307E+01  0.245616808633774E+00
     0.840000000000001E+00  0.220195389450654E+00  0.120985159223429E-01  0.452775235444561E+01  0.248774890742940E+00
     0.850000000000001E+00  0.220145333417168E+00  0.122477521604699E-01  0.452843718801620E+01  0.251938914589557E+00
     0.860000000000001E+00  0.220094780687147E+00  0.123971183062725E-01  0.452912777816622E+01  0.255108879523877E+00
     0.870000000000001E+00  0.220043733446963E+00  0.125466126166600E-01  0.452982407302960E+01  0.258284782645819E+00
     0.880000000000001E+00  0.219992193821036E+00  0.126962332413377E-01  0.453052602236150E+01  0.261466618823050E+00
     0.890000000000001E+00  0.219940163867722E+00  0.128459782231322E-01  0.453123357763837E+01  0.264654380712728E+00
     0.900000000000001E+00  0.219887645575154E+00  0.129958454984577E-01  0.453194669215897E+01  0.267848058786980E+00
     0.910000000000001E+00  0.219834640857021E+00  0.131458328979257E-01  0.453266532114632E+01  0.271047641362247E+00
     0.920000000000001E+00  0.219781151548301E+00  0.132959381471060E-01  0.453338942185051E+01  0.274253114632635E+00
     0.930000000000001E+00  0.219727179400939E+00  0.134461588674420E-01  0.453411895365236E+01  0.277464462707380E+00
     0.940000000000001E+00  0.219672726079501E+00  0.135964925773259E-01  0.453485387816715E+01  0.280681667652464E+00
     0.950000000000001E+00  0.219617793156784E+00  0.137469366933379E-01  0.453559415934914E+01  0.283904709536598E+00
     0.960000000000001E+00  0.219562382109405E+00  0.138974885316545E-01  0.453633976359608E+01  0.287133566481580E+00
     0.970000000000000E+00  0.219506494313350E+00  0.140481453096302E-01  0.453709065985382E+01  0.290368214717172E+00
     0.980000000000000E+00  0.219450131039536E+00  0.141989041475556E-01  0.453784681972064E+01  0.293608628640532E+00
     0.990000000000000E+00  0.219393293449335E+00  0.143497620705975E-01  0.453860821755154E+01  0.296854780880361E+00
     0.100000000000000E+01  0.219335982590126E+00  0.145007160109230E-01  0.453937483056137E+01  0.300106642365691E+00
     0.101000000000000E+01  0.219278199390828E+00  0.146517628100122E-01  0.454014663892790E+01  0.303364182399557E+00
     0.102000000000000E+01  0.219219944657453E+00  0.148028992211613E-01  0.454092362589366E+01  0.306627368737496E+00
     0.103000000000000E+01  0.219161219068710E+00  0.149541219121804E-01  0.454170577786608E+01  0.309896167670843E+00
     0.104000000000000E+01  0.219102023171586E+00  0.151054274682866E-01  0.454249308451725E+01  0.313170544115118E+00
     0.105000000000000E+01  0.219042357377016E+00  0.152568123951960E-01  0.454328553888109E+01  0.316450461703208E+00
     0.106000000000000E+01  0.218982221955579E+00  0.154082731224152E-01  0.454408313744914E+01  0.319735882883591E+00
     0.107000000000000E+01  0.218921617033251E+00  0.155598060067336E-01  0.454488588026411E+01  0.323026769023504E+00
     0.108000000000000E+01  0.218860542587236E+00  0.157114073359178E-01  0.454569377101100E+01  0.326323080517043E+00
     0.109000000000000E+01  0.218798998441864E+00  0.158630733326085E-01  0.454650681710563E+01  0.329624776898209E+00
     0.110000000000000E+01  0.218736984264576E+00  0.160148001584180E-01  0.454732502978057E+01  0.332931816958865E+00
     0.111000000000000E+01  0.218674499562020E+00  0.161665839182307E-01  0.454814842416736E+01  0.336244158871467E+00
     0.112000000000000E+01  0.218611543676237E+00  0.163184206647026E-01  0.454897701937595E+01  0.339561760316642E+00
     0.113000000000000E+01  0.218548115780973E+00  0.164703064029590E-01  0.454981083857015E+01  0.342884578615425E+00
     0.114000000000000E+01  0.218484214878115E+00  0.166222370954894E-01  0.455064990903933E+01  0.346212570866124E+00
     0.115000000000000E+01  0.218419839794277E+00  0.167742086672351E-01  0.455149426226583E+01  0.349545694085664E+00
     0.116000000000000E+01  0.218354989177511E+00  0.169262170108659E-01  0.455234393398826E+01  0.352883905355345E+00
     0.117000000000000E+01  0.218289661494207E+00  0.170782579922445E-01  0.455319896425967E+01  0.356227161970797E+00
     0.118000000000000E+01  0.218223855026135E+00  0.172303274560708E-01  0.455405939750137E+01  0.359575421596084E+00
     0.119000000000000E+01  0.218157567867680E+00  0.173824212317025E-01  0.455492528255121E+01  0.362928642421699E+00
     0.120000000000000E+01  0.218090797923281E+00  0.175345351391470E-01  0.455579667270637E+01  0.366286783326273E+00
     0.121000000000000E+01  0.218023542905033E+00  0.176866649952157E-01  0.455667362576112E+01  0.369649804041925E+00
     0.122000000000000E+01  0.217955800330538E+00  0.178388066198368E-01  0.455755620403805E+01  0.373017665322858E+00
     0.123000000000000E+01  0.217887567520950E+00  0.179909558425160E-01  0.455844447441364E+01  0.376390329117109E+00
     0.124000000000000E+01  0.217818841599261E+00  0.181431085089390E-01  0.455933850833743E+01  0.379767758741173E+00
     0.125000000000000E+01  0.217749619488822E+00  0.182952604877058E-01  0.456023838184469E+01  0.383149919057220E+00
     0.126000000000000E+01  0.217679897912105E+00  0.184474076771880E-01  0.456114417556262E+01  0.386536776652706E+00
     0.127000000000000E+01  0.217609673389728E+00  0.185995460124982E-01  0.456205597470938E+01  0.389928300022001E+00
     0.128000000000000E+01  0.217538942239747E+00  0.187516714725626E-01  0.456297386908635E+01  0.393324459749817E+00
     0.129000000000000E+01  0.217467700577192E+00  0.189037800872831E-01  0.456389795306340E+01  0.396725228696148E+00
     0.130000000000000E+01  0.217395944313916E+00  0.190558679447806E-01  0.456482832555649E+01  0.400130582182301E+00
     0.131000000000000E+01  0.217323669158701E+00  0.192079311987037E-01  0.456576508999817E+01  0.403540498177793E+00
     0.132000000000000E+01  0.217250870617662E+00  0.193599660755936E-01  0.456670835430055E+01  0.406954957487756E+00
     0.133000000000000E+01  0.217177543994949E+00  0.195119688822897E-01  0.456765823081046E+01  0.410373943940452E+00
     0.134000000000000E+01  0.217103684393734E+00  0.196639360133634E-01  0.456861483625756E+01  0.413797444574664E+00
     0.135000000000000E+01  0.217029286717514E+00  0.198158639585670E-01  0.456957829169401E+01  0.417225449826456E+00
     0.136000000000000E+01  0.216954345671723E+00  0.199677493102820E-01  0.457054872242684E+01  0.420657953715023E+00
     0.137000000000000E+01  0.216878855765623E+00  0.201195887709534E-01  0.457152625794278E+01  0.424094954027340E+00
     0.138000000000000E+01  0.216802811314542E+00  0.202713791604957E-01  0.457251103182500E+01  0.427536452501050E+00
     0.139000000000000E+01  0.216726206442392E+00  0.204231174236542E-01  0.457350318166235E+01  0.430982455005388E+00
     0.140000000000000E+01  0.216649035084518E+00  0.205748006373083E-01  0.457450284895091E+01  0.434432971719658E+00
     0.141000000000000E+01  0.216571290990837E+00  0.207264260177002E-01  0.457551017898827E+01  0.437888017309030E+00
     0.142000000000000E+01  0.216492967729297E+00  0.208779909275750E-01  0.457652532076002E+01  0.441347611097092E+00
     0.143000000000000E+01  0.216414058689640E+00  0.210294928832159E-01  0.457754842681895E+01  0.444811777234938E+00
     0.144000000000000E+01  0.216334557087458E+00  0.211809295613604E-01  0.457857965315741E+01  0.448280544866437E+00
     0.145000000000000E+01  0.216254455968553E+00  0.213322988059819E-01  0.457961915907215E+01  0.451753948289198E+00
     0.146000000000000E+01  0.216173748213582E+00  0.214835986349207E-01  0.458066710702280E+01  0.455232027111043E+00
     0.147000000000000E+01  0.216092426543002E+00  0.216348272463530E-01  0.458172366248309E+01  0.458714826401488E+00
     0.148000000000000E+01  0.216010483522270E+00  0.217859830250789E-01  0.458278899378639E+01  0.462202396838094E+00
     0.149000000000000E+01  0.215927911567334E+00  0.219370645486191E-01  0.458386327196441E+01  0.465694794847172E+00
     0.150000000000000E+01  0.215844702950383E+00  0.220880705931055E-01  0.458494667058025E+01  0.469192082738674E+00
     0.151000000000000E+01  0.215760849805841E+00  0.222390001389503E-01  0.458603936555580E+01  0.472694328834935E+00
     0.152000000000000E+01  0.215676344136613E+00  0.223898523762844E-01  0.458714153499366E+01  0.476201607592974E+00
     0.153000000000000E+01  0.215591177820557E+00  0.225406267101496E-01  0.458825335899415E+01  0.479713999720148E+00
     0.154000000000000E+01  0.215505342617185E+00  0.226913227654348E-01  0.458937501946733E+01  0.483231592282820E+00
     0.155000000000000E+01  0.215418830174566E+00  0.228419403915440E-01  0.459050669994079E+01  0.486754478807912E+00
     0.156000000000000E+01  0.215331632036420E+00  0.229924796667869E-01  0.459164858536352E+01  0.490282759377153E+00
     0.157000000000000E+01  0.215243739649409E+00  0.231429409024799E-01  0.459280086190564E+01  0.493816540713652E+00
     0.158000000000000E+01  0.215155144370581E+00  0.232933246467524E-01  0.459396371675524E+01  0.497355936260908E+00
     0.159000000000000E+01  0.215065837474974E+00  0.234436316880457E-01  0.459513733791213E+01  0.500901066253884E+00
     0.160000000000000E+01  0.214975810163361E+00  0.235938630583012E-01  0.459632191397883E+01  0.504452057782117E+00
     0.161000000000000E+01  0.214885053570115E+00  0.237440200358280E-01  0.459751763394967E+01  0.508009044844780E+00
     0.162000000000000E+01  0.214793558771179E+00  0.238941041478465E-01  0.459872468699797E+01  0.511572168397566E+00
     0.163000000000000E+01  0.214701316792127E+00  0.240441171727025E-01  0.459994326226196E+01  0.515141576391422E+00
     0.164000000000000E+01  0.214608318616309E+00  0.241940611417472E-01  0.460117354862953E+01  0.518717423802942E+00
     0.165000000000000E+01  0.214514555193046E+00  0.243439383408812E-01  0.460241573452263E+01  0.522299872656625E+00
     0.166000000000000E+01  0.214420017445860E+00  0.244937513117596E-01  0.460367000768142E+01  0.525889092038837E+00
